time,value
1509013526683,465
1509013526683,464
1509013526684,468
1509013526684,471
1509013526684,471
1509013526685,469
1509013526685,465
1509013526685,464
1509013526686,464
1509013526686,462
1509013526686,463
1509013526687,462
1509013526687,464
1509013526687,467
1509013526688,469
1509013526688,476
1509013526688,482
1509013526688,494
1509013526689,508
1509013526689,523
1509013526689,543
1509013526690,562
1509013526690,583
1509013526690,602
1509013528251,517
1509013528260,481
1509013528268,455
1509013528276,444
1509013528284,437
1509013528292,435
1509013528296,437
1509013528304,438
1509013528313,447
1509013528321,453
1509013528329,460
1509013528337,468
1509013528345,474
1509013528354,482
1509013528362,487
1509013528370,490
1509013528378,494
1509013528386,495
1509013528395,496
1509013528403,495
1509013528411,494
1509013528419,493
1509013528427,487
1509013528436,485
1509013528444,482
1509013528452,477
1509013528456,474
1509013528464,469
1509013528472,467
1509013528481,463
1509013528489,460
1509013528497,460
1509013528505,455
1509013528513,455
1509013528521,454
1509013528530,452
1509013528538,453
1509013528546,451
1509013528554,453
1509013528562,453
1509013528571,453
1509013528579,455
1509013528587,455
1509013528595,458
1509013528603,458
1509013528611,458
1509013528616,460
1509013528624,459
1509013528632,461
1509013528640,461
1509013528648,460
1509013528657,461
1509013528665,459
1509013528673,459
1509013528681,457
1509013528689,457
1509013528697,458
1509013528706,456
1509013528714,458
1509013528722,459
1509013528730,460
1509013528738,466
1509013528746,470
1509013528755,480
1509013528763,491
1509013528771,504
1509013528775,521
1509013528783,538
1509013528792,557
1509013528800,575
1509013528808,591
1509013528816,606
1509013528824,615
1509013528833,624
1509013528841,629
1509013528849,627
1509013528857,628
1509013528865,621
1509013528873,614
1509013528882,605
1509013528890,593
1509013528898,583
1509013528906,570
1509013528914,558
1509013528923,544
1509013528931,530
1509013528939,521
1509013528943,507
1509013528951,499
1509013528959,491
1509013528967,484
1509013528976,481
1509013528984,476
1509013528992,475
1509013529000,476
1509013529008,476
1509013529017,481
1509013529025,483
1509013529033,492
1509013529041,494
1509013529049,498
1509013529058,499
1509013529066,497
1509013529074,498
1509013529082,498
1509013529090,496
1509013529098,497
1509013529103,493
1509013529111,492
1509013529119,489
1509013529127,483
1509013529135,481
1509013529144,476
1509013529152,473
1509013529160,470
1509013529169,466
1509013529177,464
1509013529184,461
1509013529194,460
1509013529202,459
1509013529210,457
1509013529218,458
1509013529226,456
1509013529235,457
1509013529243,458
1509013529251,457
1509013529259,459
1509013529263,458
1509013529272,460
1509013529280,460
1509013529288,460
1509013529296,462
1509013529304,461
1509013529312,462
1509013529321,463
1509013529329,461
1509013529337,463
1509013529345,461
1509013529354,462
1509013529362,463
1509013529370,461
1509013529378,462
1509013529386,461
1509013529394,463
1509013529402,467
1509013529411,468
1509013529419,475
1509013529423,480
1509013529431,491
1509013529440,504
1509013529448,516
1509013529456,533
1509013529464,549
1509013529472,566
1509013529480,582
1509013529488,593
1509013529497,605
1509013529505,611
1509013529513,617
1509013529521,619
1509013529529,615
1509013529538,613
1509013529546,605
1509013529554,597
1509013529562,589
1509013529570,576
1509013529578,567
1509013529583,554
1509013529591,548
1509013529599,535
1509013529607,520
1509013529615,514
1509013529624,501
1509013529632,495
1509013529640,488
1509013529648,483
1509013529656,481
1509013529664,476
1509013529673,478
1509013529681,480
1509013529689,479
1509013529697,485
1509013529705,484
1509013529714,491
1509013529722,492
1509013529730,489
1509013529738,492
1509013529742,492
1509013529751,493
1509013529759,494
1509013529767,491
1509013529775,492
1509013529783,489
1509013529792,487
1509013529799,485
1509013529808,480
1509013529816,479
1509013529824,474
1509013529832,471
1509013529840,469
1509013529849,464
1509013529857,465
1509013529865,462
1509013529873,461
1509013529881,461
1509013529889,458
1509013529898,460
1509013529902,458
1509013529910,458
1509013529918,459
1509013529926,457
1509013529934,461
1509013529943,459
1509013529951,459
1509013529959,461
1509013529967,459
1509013529975,461
1509013529984,461
1509013529992,461
1509013530000,463
1509013530008,461
1509013530016,463
1509013530025,462
1509013530033,462
1509013530041,464
1509013530049,465
1509013530057,469
1509013530061,475
1509013530070,482
1509013530078,494
1509013530086,505
1509013530094,521
1509013530102,536
1509013530110,554
1509013530119,573
1509013530127,587
1509013530135,604
1509013530143,617
1509013530151,628
1509013530160,641
1509013530168,641
1509013530176,638
1509013530184,633
1509013530193,623
1509013530201,614
1509013530209,601
1509013530217,590
1509013530221,578
1509013530229,564
1509013530237,554
1509013530245,539
1509013530254,529
1509013530262,518
1509013530270,507
1509013530278,500
1509013530286,491
1509013530295,487
1509013530303,482
1509013530311,480
1509013530319,480
1509013530327,478
1509013530336,481
1509013530344,483
1509013530352,485
1509013530360,490
1509013530368,491
1509013530376,495
1509013530381,497
1509013530389,498
1509013530397,501
1509013530405,498
1509013530413,499
1509013530422,497
1509013530430,495
1509013530438,494
1509013530446,489
1509013530454,487
1509013530462,483
1509013530471,478
1509013530479,475
1509013530487,470
1509013530495,467
1509013530503,464
1509013530512,461
1509013530520,463
1509013530528,458
1509013530536,459
1509013530540,457
1509013530548,455
1509013530557,457
1509013530565,455
1509013530573,457
1509013530581,458
1509013530589,458
1509013530598,460
1509013530607,459
1509013530615,461
1509013530623,462
1509013530631,462
1509013530639,464
1509013530648,462
1509013530656,462
1509013530664,463
1509013530672,461
1509013530680,463
1509013530689,462
1509013530697,465
1509013530701,468
1509013530709,471
1509013530717,480
1509013530725,488
1509013530734,502
1509013530742,517
1509013530750,532
1509013530758,553
1509013530766,571
1509013530775,591
1509013530783,609
1509013530791,625
1509013530799,639
1509013530807,647
1509013530815,653
1509013530824,656
1509013530832,654
1509013530840,652
1509013530848,642
1509013530856,636
1509013530861,626
1509013530869,614
1509013530877,603
1509013530885,589
1509013530893,577
1509013530901,564
1509013530909,551
1509013530918,540
1509013530926,527
1509013530934,517
1509013530942,509
1509013530950,499
1509013530959,495
1509013530967,490
1509013530975,488
1509013530983,487
1509013530991,486
1509013531000,488
1509013531008,488
1509013531016,491
1509013531020,493
1509013531028,494
1509013531037,498
1509013531045,499
1509013531053,500
1509013531061,500
1509013531069,498
1509013531077,498
1509013531086,496
1509013531094,494
1509013531102,491
1509013531110,487
1509013531118,485
1509013531126,480
1509013531135,477
1509013531143,474
1509013531151,469
1509013531159,467
1509013531167,463
1509013531176,462
1509013531180,461
1509013531188,458
1509013531196,459
1509013531204,456
1509013531213,456
1509013531221,456
1509013531229,453
1509013531237,455
1509013531245,454
1509013531254,455
1509013531262,457
1509013531270,455
1509013531278,458
1509013531286,457
1509013531294,458
1509013531303,458
1509013531311,457
1509013531319,458
1509013531327,457
1509013531335,458
1509013531343,459
1509013531348,458
1509013531356,460
1509013531364,460
1509013531372,463
1509013531380,468
1509013531388,474
1509013531397,486
1509013531405,499
1509013531413,515
1509013531421,535
1509013531429,553
1509013531438,577
1509013531446,596
1509013531454,616
1509013531462,635
1509013531470,648
1509013531479,660
1509013531487,666
1509013531495,669
1509013531503,669
1509013531507,663
1509013531515,658
1509013531524,648
1509013531532,637
1509013531540,625
1509013531548,610
1509013531556,598
1509013531564,584
1509013531573,569
1509013531581,556
1509013531589,542
1509013531597,531
1509013531606,519
1509013531614,511
1509013531622,502
1509013531630,494
1509013531638,492
1509013531646,487
1509013531654,485
1509013531663,486
1509013531667,484
1509013531675,488
1509013531683,489
1509013531691,491
1509013531699,494
1509013531708,494
1509013531716,497
1509013531724,497
1509013531732,498
1509013531740,499
1509013531749,495
1509013531757,495
1509013531765,492
1509013531773,489
1509013531781,487
1509013531789,481
1509013531798,480
1509013531806,475
1509013531814,472
1509013531822,470
1509013531826,466
1509013531835,466
1509013531843,462
1509013531851,460
1509013531859,461
1509013531867,458
1509013531876,458
1509013531884,457
1509013531892,456
1509013531900,457
1509013531908,455
1509013531917,457
1509013531925,457
1509013531933,456
1509013531941,458
1509013531949,457
1509013531957,459
1509013531965,458
1509013531974,458
1509013531982,460
1509013531986,458
1509013531994,459
1509013532002,458
1509013532012,458
1509013532020,459
1509013532028,457
1509013532036,459
1509013532044,458
1509013532053,460
1509013532061,465
1509013532069,469
1509013532077,480
1509013532085,490
1509013532094,503
1509013532102,521
1509013532110,538
1509013532118,560
1509013532126,581
1509013532134,601
1509013532142,621
1509013532147,636
1509013532155,651
1509013532163,660
1509013532171,666
1509013532179,670
1509013532188,666
1509013532196,662
1509013532204,654
1509013532212,643
1509013532220,633
1509013532228,618
1509013532237,605
1509013532245,590
1509013532253,575
1509013532261,562
1509013532270,545
1509013532278,535
1509013532286,521
1509013532294,510
1509013532302,504
1509013532306,493
1509013532314,489
1509013532323,485
1509013532331,483
1509013532339,484
1509013532347,483
1509013532355,487
1509013532364,489
1509013532372,492
1509013532380,495
1509013532388,496
1509013532396,499
1509013532405,501
1509013532413,501
1509013532421,502
1509013532429,500
1509013532437,499
1509013532446,497
1509013532454,493
1509013532462,491
1509013532466,486
1509013532474,484
1509013532483,479
1509013532491,475
1509013532499,473
1509013532507,467
1509013532515,465
1509013532523,462
1509013532531,460
1509013532540,459
1509013532548,456
1509013532556,457
1509013532564,456
1509013532572,454
1509013532581,457
1509013532589,454
1509013532597,456
1509013532605,456
1509013532614,456
1509013532621,458
1509013532626,457
1509013532634,459
1509013532642,459
1509013532650,459
1509013532659,461
1509013532666,459
1509013532675,461
1509013532683,461
1509013532691,460
1509013532699,463
1509013532707,460
1509013532716,461
1509013532724,461
1509013532732,459
1509013532740,460
1509013532748,457
1509013532757,458
1509013532765,458
1509013532773,458
1509013532781,462
1509013532785,464
1509013532793,472
1509013532801,482
1509013532810,492
1509013532818,509
1509013532826,525
1509013532834,546
1509013532843,568
1509013532851,589
1509013532859,611
1509013532867,629
1509013532875,646
1509013532883,658
1509013532892,664
1509013532900,670
1509013532908,668
1509013532916,665
1509013532924,658
1509013532933,648
1509013532940,638
1509013532945,624
1509013532953,611
1509013532961,596
1509013532969,581
1509013532977,569
1509013532986,553
1509013532994,541
1509013533002,528
1509013533010,516
1509013533018,509
1509013533027,500
1509013533035,495
1509013533043,491
1509013533051,487
1509013533059,487
1509013533067,485
1509013533076,488
1509013533084,491
1509013533092,492
1509013533100,498
1509013533104,498
1509013533113,501
1509013533121,504
1509013533129,503
1509013533137,504
1509013533145,501
1509013533154,501
1509013533162,500
1509013533170,496
1509013533178,494
1509013533186,488
1509013533194,486
1509013533203,483
1509013533211,478
1509013533219,475
1509013533227,471
1509013533235,468
1509013533243,466
1509013533252,462
1509013533260,463
1509013533264,460
1509013533272,459
1509013533280,459
1509013533288,457
1509013533297,459
1509013533305,457
1509013533313,458
1509013533321,460
1509013533330,459
1509013533338,461
1509013533346,460
1509013533354,460
1509013533362,461
1509013533370,460
1509013533378,462
1509013533387,461
1509013533395,462
1509013533403,463
1509013533411,461
1509013533420,463
1509013533424,460
1509013533433,460
1509013533441,460
1509013533449,457
1509013533457,458
1509013533466,457
1509013533474,459
1509013533482,462
1509013533490,464
1509013533498,473
1509013533506,481
1509013533515,494
1509013533523,509
1509013533531,523
1509013533539,543
1509013533547,561
1509013533556,581
1509013533564,599
1509013533572,613
1509013533580,629
1509013533588,637
1509013533593,643
1509013533601,646
1509013533609,643
1509013533617,641
1509013533625,632
1509013533633,623
1509013533642,612
1509013533650,599
1509013533658,587
1509013533666,572
1509013533674,558
1509013533682,545
1509013533691,529
1509013533699,518
1509013533707,505
1509013533715,495
1509013533723,489
1509013533732,481
1509013533740,478
1509013533748,473
1509013533752,473
1509013533760,474
1509013533768,476
1509013533777,481
1509013533785,482
1509013533793,486
1509013533801,492
1509013533809,492
1509013533817,497
1509013533826,499
1509013533834,499
1509013533842,501
1509013533850,498
1509013533859,499
1509013533867,496
1509013533875,493
1509013533883,491
1509013533892,485
1509013533899,483
1509013533907,478
1509013533912,474
1509013533920,472
1509013533928,467
1509013533936,465
1509013533944,462
1509013533953,460
1509013533961,460
1509013533969,457
1509013533977,458
1509013533985,456
1509013533994,455
1509013534002,457
1509013534010,455
1509013534018,458
1509013534026,459
1509013534035,459
1509013534043,461
1509013534051,461
1509013534059,462
1509013534067,462
1509013534071,462
1509013534079,464
1509013534088,462
1509013534096,464
1509013534104,462
1509013534112,461
1509013534120,462
1509013534129,460
1509013534137,462
1509013534145,464
1509013534153,467
1509013534161,473
1509013534169,479
1509013534178,490
1509013534186,502
1509013534194,516
1509013534202,533
1509013534210,549
1509013534219,568
1509013534227,583
1509013534231,598
1509013534239,612
1509013534247,620
1509013534256,627
1509013534264,629
1509013534272,628
1509013534280,625
1509013534288,617
1509013534297,610
1509013534305,599
1509013534313,586
1509013534321,574
1509013534329,558
1509013534337,545
1509013534345,531
1509013534354,516
1509013534362,505
1509013534370,493
1509013534378,485
1509013534386,479
1509013534391,474
1509013534399,475
1509013534407,472
1509013534415,475
1509013534423,478
1509013534432,481
1509013534440,487
1509013534448,489
1509013534456,494
1509013534464,496
1509013534473,499
1509013534481,503
1509013534489,502
1509013534497,505
1509013534505,504
1509013534513,501
1509013534522,502
1509013534530,497
1509013534538,497
1509013534546,493
1509013534550,488
1509013534558,485
1509013534567,479
1509013534575,477
1509013534583,473
1509013534591,468
1509013534599,467
1509013534607,463
1509013534616,463
1509013534624,461
1509013534632,458
1509013534640,461
1509013534648,459
1509013534657,460
1509013534665,460
1509013534673,460
1509013534681,462
1509013534689,461
1509013534698,463
1509013534706,464
1509013534710,463
1509013534718,465
1509013534726,463
1509013534734,465
1509013534742,466
1509013534751,466
1509013534759,469
1509013534767,470
1509013534775,477
1509013534783,483
1509013534792,491
1509013534800,504
1509013534809,515
1509013534817,531
1509013534825,548
1509013534834,563
1509013534842,582
1509013534850,596
1509013534858,609
1509013534866,620
1509013534870,626
1509013534879,633
1509013534887,630
1509013534895,630
1509013534903,625
1509013534911,616
1509013534919,609
1509013534928,597
1509013534936,584
1509013534944,572
1509013534952,557
1509013534960,544
1509013534969,530
1509013534977,517
1509013534985,506
1509013534993,496
1509013535001,490
1509013535009,482
1509013535018,480
1509013535026,478
1509013535030,476
1509013535038,480
1509013535046,482
1509013535055,487
1509013535063,492
1509013535071,495
1509013535079,501
1509013535087,503
1509013535096,507
1509013535104,510
1509013535112,509
1509013535120,512
1509013535128,510
1509013535137,509
1509013535145,508
1509013535153,504
1509013535161,502
1509013535169,497
1509013535177,493
1509013535185,490
1509013535190,484
1509013535198,483
1509013535206,478
1509013535214,475
1509013535222,473
1509013535231,469
1509013535239,468
1509013535247,466
1509013535255,466
1509013535263,466
1509013535272,464
1509013535280,466
1509013535288,464
1509013535296,465
1509013535304,467
1509013535312,465
1509013535321,468
1509013535329,467
1509013535337,468
1509013535345,471
1509013535350,472
1509013535357,479
1509013535366,486
1509013535374,495
1509013535382,507
1509013535390,519
1509013535398,538
1509013535407,555
1509013535415,575
1509013535423,596
1509013535431,612
1509013535439,631
1509013535447,644
1509013535456,656
1509013535464,665
1509013535472,666
1509013535480,666
1509013535488,661
1509013535497,654
1509013535505,646
1509013535513,632
1509013535517,620
1509013535525,605
1509013535534,589
1509013535542,574
1509013535550,557
1509013535558,543
1509013535566,529
1509013535574,516
1509013535582,506
1509013535591,495
1509013535599,490
1509013535607,484
1509013535615,481
1509013535623,482
1509013535632,481
1509013535640,486
1509013535648,488
1509013535656,492
1509013535664,498
1509013535672,500
1509013535677,505
1509013535685,508
1509013535693,509
1509013535701,510
1509013535710,509
1509013535718,509
1509013535726,505
1509013535734,502
1509013535742,501
1509013535751,495
1509013535759,492
1509013535767,486
1509013535775,481
1509013535783,479
1509013535791,472
1509013535799,470
1509013535808,467
1509013535816,464
1509013535824,464
1509013535832,460
1509013535836,461
1509013535844,459
1509013535853,460
1509013535861,462
1509013535869,459
1509013535877,461
1509013535885,461
1509013535894,462
1509013535902,464
1509013535910,463
1509013535918,466
1509013535926,466
1509013535935,468
1509013535943,472
1509013535951,475
1509013535959,484
1509013535967,495
1509013535976,508
1509013535984,526
1509013535992,544
1509013535996,566
1509013536004,588
1509013536012,611
1509013536020,634
1509013536029,652
1509013536037,669
1509013536045,681
1509013536053,688
1509013536061,693
1509013536070,691
1509013536078,688
1509013536086,680
1509013536094,669
1509013536102,658
1509013536111,643
1509013536119,629
1509013536127,612
1509013536135,595
1509013536143,580
1509013536151,560
1509013536156,546
1509013536164,531
1509013536172,516
1509013536180,506
1509013536188,494
1509013536196,487
1509013536205,481
1509013536213,477
1509013536221,476
1509013536230,474
1509013536238,477
1509013536247,480
1509013536255,483
1509013536263,488
1509013536271,490
1509013536279,494
1509013536288,497
1509013536296,498
1509013536304,500
1509013536312,498
1509013536316,498
1509013536324,496
1509013536333,493
1509013536341,491
1509013536349,484
1509013536357,482
1509013536365,478
1509013536374,473
1509013536382,470
1509013536390,464
1509013536398,462
1509013536406,458
1509013536414,455
1509013536423,455
1509013536431,452
1509013536439,453
1509013536447,452
1509013536455,451
1509013536463,453
1509013536472,451
1509013536476,453
1509013536484,455
1509013536492,454
1509013536500,457
1509013536509,456
1509013536517,458
1509013536525,459
1509013536533,458
1509013536541,460
1509013536549,457
1509013536558,459
1509013536566,459
1509013536574,462
1509013536582,469
1509013536590,476
1509013536599,489
1509013536607,506
1509013536615,523
1509013536623,548
1509013536631,571
1509013536635,598
1509013536644,624
1509013536652,648
1509013536660,671
1509013536668,688
1509013536676,702
1509013536684,712
1509013536693,715
1509013536701,716
1509013536709,709
1509013536717,702
1509013536725,692
1509013536734,678
1509013536742,665
1509013536750,647
1509013536758,630
1509013536766,613
1509013536775,593
1509013536783,577
1509013536791,558
1509013536795,542
1509013536803,526
1509013536812,512
1509013536820,501
1509013536828,489
1509013536836,482
1509013536844,477
1509013536852,471
1509013536861,472
1509013536869,470
1509013536877,473
1509013536885,475
1509013536893,475
1509013536901,480
1509013536910,481
1509013536918,484
1509013536926,487
1509013536934,487
1509013536942,489
1509013536950,486
1509013536955,486
1509013536963,485
1509013536971,480
1509013536979,478
1509013536987,473
1509013536996,470
1509013537004,467
1509013537012,462
1509013537020,461
1509013537028,456
1509013537037,454
1509013537045,452
1509013537053,448
1509013537061,449
1509013537069,446
1509013537077,446
1509013537086,447
1509013537094,445
1509013537102,447
1509013537110,446
1509013537114,447
1509013537122,449
1509013537131,448
1509013537139,451
1509013537147,450
1509013537155,452
1509013537163,454
1509013537171,452
1509013537180,455
1509013537188,455
1509013537196,456
1509013537204,456
1509013537213,454
1509013537221,456
1509013537229,453
1509013537237,454
1509013537245,454
1509013537254,451
1509013537262,454
1509013537270,452
1509013537274,452
1509013537282,453
1509013537290,451
1509013537299,452
1509013537307,451
1509013537315,451
1509013537323,451
1509013537331,449
1509013537339,451
1509013537348,452
1509013537356,457
1509013537364,464
1509013537372,470
1509013537380,485
1509013537388,501
1509013537397,523
1509013537405,549
1509013537413,576
1509013537421,607
1509013537429,635
1509013537434,663
1509013537442,689
1509013537450,708
1509013537458,726
1509013537466,736
1509013537475,740
1509013537483,743
1509013537491,736
1509013537499,729
1509013537507,716
1509013537516,702
1509013537524,687
1509013537532,667
1509013537540,651
1509013537548,632
1509013537556,613
1509013537565,596
1509013537573,575
1509013537581,559
1509013537589,541
1509013537597,527
1509013537602,514
1509013537610,501
1509013537618,494
1509013537627,486
1509013537635,481
1509013537643,480
1509013537652,477
1509013537660,480
1509013537668,480
1509013537676,482
1509013537684,486
1509013537693,486
1509013537701,489
1509013537709,491
1509013537717,491
1509013537725,492
1509013537733,489
1509013537741,490
1509013537750,486
1509013537758,483
1509013537762,482
1509013537770,476
1509013537778,474
1509013537786,470
1509013537795,466
1509013537803,463
1509013537811,459
1509013537819,458
1509013537827,454
1509013537836,452
1509013537844,451
1509013537852,448
1509013537860,450
1509013537868,448
1509013537877,447
1509013537885,449
1509013537893,448
1509013537901,450
1509013537909,450
1509013537917,450
1509013537922,452
1509013537930,451
1509013537938,453
1509013537946,453
1509013537954,452
1509013537962,455
1509013537971,452
1509013537979,455
1509013537987,454
1509013537995,453
1509013538003,455
1509013538012,453
1509013538020,454
1509013538028,453
1509013538036,452
1509013538044,453
1509013538053,449
1509013538061,451
1509013538069,450
1509013538077,449
1509013538081,452
1509013538089,449
1509013538098,451
1509013538106,451
1509013538114,450
1509013538122,451
1509013538130,450
1509013538138,451
1509013538147,452
1509013538155,453
1509013538163,458
1509013538172,461
1509013538179,469
1509013538188,480
1509013538196,493
1509013538204,513
1509013538212,532
1509013538220,558
1509013538229,583
1509013538237,608
1509013538241,635
1509013538249,655
1509013538257,676
1509013538265,690
1509013538274,699
1509013538282,705
1509013538290,703
1509013538298,699
1509013538306,692
1509013538314,679
1509013538323,667
1509013538331,651
1509013538339,636
1509013538347,619
1509013538355,601
1509013538364,586
1509013538372,567
1509013538380,551
1509013538388,536
1509013538396,520
1509013538400,509
1509013538409,496
1509013538417,488
1509013538425,481
1509013538433,476
1509013538441,475
1509013538450,472
1509013538458,474
1509013538466,476
1509013538474,477
1509013538482,482
1509013538490,483
1509013538499,485
1509013538507,488
1509013538515,488
1509013538523,490
1509013538531,488
1509013538540,488
1509013538548,487
1509013538556,483
1509013538560,482
1509013538568,478
1509013538576,475
1509013538585,473
1509013538593,468
1509013538601,466
1509013538609,461
1509013538618,460
1509013538625,458
1509013538634,454
1509013538642,454
1509013538650,450
1509013538658,450
1509013538666,450
1509013538675,448
1509013538683,450
1509013538691,449
1509013538699,450
1509013538707,451
1509013538715,450
1509013538720,452
1509013538728,451
1509013538736,453
1509013538744,454
1509013538753,454
1509013538761,456
1509013538769,456
1509013538777,457
1509013538785,457
1509013538793,455
1509013538801,456
1509013538810,454
1509013538818,454
1509013538826,455
1509013538834,453
1509013538843,455
1509013538851,453
1509013538859,454
1509013538867,454
1509013538875,451
1509013538879,453
1509013538887,451
1509013538896,450
1509013538904,450
1509013538912,447
1509013538920,448
1509013538928,448
1509013538937,450
1509013538945,453
1509013538953,455
1509013538961,464
1509013538969,472
1509013538978,484
1509013538986,501
1509013538994,517
1509013539002,540
1509013539010,562
1509013539018,585
1509013539026,607
1509013539035,624
1509013539040,643
1509013539048,654
1509013539056,662
1509013539064,669
1509013539073,666
1509013539081,665
1509013539089,656
1509013539097,647
1509013539105,636
1509013539114,621
1509013539122,608
1509013539130,592
1509013539138,576
1509013539146,562
1509013539155,545
1509013539163,534
1509013539171,518
1509013539179,506
1509013539187,497
1509013539195,486
1509013539199,481
1509013539208,475
1509013539216,472
1509013539224,472
1509013539232,470
1509013539241,473
1509013539249,475
1509013539257,478
1509013539265,483
1509013539273,483
1509013539282,488
1509013539290,490
1509013539298,491
1509013539306,493
1509013539314,491
1509013539322,492
1509013539330,490
1509013539339,488
1509013539347,487
1509013539355,482
1509013539359,480
1509013539367,476
1509013539376,472
1509013539384,470
1509013539392,464
1509013539400,464
1509013539408,459
1509013539417,457
1509013539425,457
1509013539433,452
1509013539441,453
1509013539449,451
1509013539458,450
1509013539466,452
1509013539474,449
1509013539482,451
1509013539490,450
1509013539499,451
1509013539506,453
1509013539515,451
1509013539519,455
1509013539527,456
1509013539535,456
1509013539543,459
1509013539552,456
1509013539560,458
1509013539568,458
1509013539576,457
1509013539584,459
1509013539593,457
1509013539601,459
1509013539609,457
1509013539617,456
1509013539625,458
1509013539634,454
1509013539642,455
1509013539650,455
1509013539658,453
1509013539666,455
1509013539674,454
1509013539678,458
1509013539687,461
1509013539695,466
1509013539703,476
1509013539711,485
1509013539719,501
1509013539727,516
1509013539736,533
1509013539744,554
1509013539752,571
1509013539760,589
1509013539768,603
1509013539777,615
1509013539785,626
1509013539793,629
1509013539801,633
1509013539809,631
1509013539818,625
1509013539826,620
1509013539834,607
1509013539842,597
1509013539846,584
1509013539854,569
1509013539863,556
1509013539871,540
1509013539879,526
1509013539887,511
1509013539895,499
1509013539904,490
1509013539912,478
1509013539920,474
1509013539928,469
1509013539936,465
1509013539945,467
1509013539953,464
1509013539961,467
1509013539969,471
1509013539977,474
1509013539985,480
1509013539994,481
1509013540001,488
1509013540006,491
1509013540014,494
1509013540022,497
1509013540030,496
1509013540039,498
1509013540047,496
1509013540055,493
1509013540063,491
1509013540072,486
1509013540080,484
1509013540088,480
1509013540096,475
1509013540104,473
1509013540112,467
1509013540121,466
1509013540129,462
1509013540137,459
1509013540145,458
1509013540153,455
1509013540161,454
1509013540166,454
1509013540174,453
1509013540182,455
1509013540190,453
1509013540198,456
1509013540206,456
1509013540215,455
1509013540223,459
1509013540231,458
1509013540239,459
1509013540247,460
1509013540256,460
1509013540264,462
1509013540272,460
1509013540280,461
1509013540288,462
1509013540297,461
1509013540305,463
1509013540313,459
1509013540321,462
1509013540325,463
1509013540333,462
1509013540342,468
1509013540350,471
1509013540358,480
1509013540366,490
1509013540374,501
1509013540382,516
1509013540391,531
1509013540399,549
1509013540407,565
1509013540415,578
1509013540423,596
1509013540432,604
1509013540440,613
1509013540448,620
1509013540457,620
1509013540465,620
1509013540474,615
1509013540481,609
1509013540486,601
1509013540494,589
1509013540502,579
1509013540510,564
1509013540518,552
1509013540527,539
1509013540535,524
1509013540543,514
1509013540551,501
1509013540559,491
1509013540567,484
1509013540576,476
1509013540584,473
1509013540592,468
1509013540600,467
1509013540608,468
1509013540617,468
1509013540625,474
1509013540633,476
1509013540641,481
1509013540645,487
1509013540654,489
1509013540662,494
1509013540670,496
1509013540678,498
1509013540686,499
1509013540694,497
1509013540703,498
1509013540711,495
1509013540719,493
1509013540727,491
1509013540735,485
1509013540743,484
1509013540752,478
1509013540760,474
1509013540768,471
1509013540777,465
1509013540785,464
1509013540793,459
1509013540801,459
1509013540805,458
1509013540813,455
1509013540821,458
1509013540829,455
1509013540838,455
1509013540846,456
1509013540854,454
1509013540862,456
1509013540870,455
1509013540879,457
1509013540887,459
1509013540895,458
1509013540903,460
1509013540911,458
1509013540920,459
1509013540928,461
1509013540936,459
1509013540944,461
1509013540952,462
1509013540960,465
1509013540964,471
1509013540973,477
1509013540981,489
1509013540989,499
1509013540997,515
1509013541005,533
1509013541014,549
1509013541022,570
1509013541030,588
1509013541038,605
1509013541046,621
1509013541055,630
1509013541063,640
1509013541071,643
1509013541079,643
1509013541087,641
1509013541096,633
1509013541104,626
1509013541112,614
1509013541120,602
1509013541124,591
1509013541132,574
1509013541141,562
1509013541149,548
1509013541157,533
1509013541165,522
1509013541173,508
1509013541181,499
1509013541190,489
1509013541198,483
1509013541206,478
1509013541214,473
1509013541223,474
1509013541231,473
1509013541239,475
1509013541247,480
1509013541255,481
1509013541263,486
1509013541272,489
1509013541280,494
1509013541284,500
1509013541292,499
1509013541300,501
1509013541308,499
1509013541317,499
1509013541325,499
1509013541333,494
1509013541341,494
1509013541349,490
1509013541358,486
1509013541366,483
1509013541374,478
1509013541382,475
1509013541390,471
1509013541398,469
1509013541407,468
1509013541415,463
1509013541423,463
1509013541431,461
1509013541439,458
1509013541444,459
1509013541452,456
1509013541460,458
1509013541468,457
1509013541476,457
1509013541484,459
1509013541493,458
1509013541501,460
1509013541509,460
1509013541517,460
1509013541525,462
1509013541534,460
1509013541542,463
1509013541550,463
1509013541558,466
1509013541566,473
1509013541574,479
1509013541583,491
1509013541591,504
1509013541599,519
1509013541603,539
1509013541611,558
1509013541620,581
1509013541628,602
1509013541636,620
1509013541644,639
1509013541652,650
1509013541661,660
1509013541669,666
1509013541677,667
1509013541685,665
1509013541693,657
1509013541701,651
1509013541709,639
1509013541718,626
1509013541726,615
1509013541734,598
1509013541742,584
1509013541750,570
1509013541758,555
1509013541763,543
1509013541771,528
1509013541779,517
1509013541787,506
1509013541795,496
1509013541804,490
1509013541812,482
1509013541820,480
1509013541828,478
1509013541836,476
1509013541845,479
1509013541853,479
1509013541862,483
1509013541870,487
1509013541878,489
1509013541886,493
1509013541895,494
1509013541903,498
1509013541911,498
1509013541919,497
1509013541923,498
1509013541931,493
1509013541940,493
1509013541948,491
1509013541956,487
1509013541964,486
1509013541973,481
1509013541981,478
1509013541989,474
1509013541997,469
1509013542005,468
1509013542013,463
1509013542022,462
1509013542030,461
1509013542038,458
1509013542046,459
1509013542054,456
1509013542062,457
1509013542071,458
1509013542079,457
1509013542087,458
1509013542091,458
1509013542099,459
1509013542107,459
1509013542116,459
1509013542124,462
1509013542132,460
1509013542140,462
1509013542149,464
1509013542157,464
1509013542165,468
1509013542173,471
1509013542181,479
1509013542189,490
1509013542198,502
1509013542206,520
1509013542214,538
1509013542222,562
1509013542230,585
1509013542238,607
1509013542246,630
1509013542251,647
1509013542259,663
1509013542267,676
1509013542275,681
1509013542284,685
1509013542292,682
1509013542300,677
1509013542308,670
1509013542316,657
1509013542324,647
1509013542333,632
1509013542341,619
1509013542349,605
1509013542357,588
1509013542365,576
1509013542374,560
1509013542382,547
1509013542390,534
1509013542398,521
1509013542406,512
1509013542410,500
1509013542419,494
1509013542427,488
1509013542435,481
1509013542443,482
1509013542452,480
1509013542460,480
1509013542468,483
1509013542476,483
1509013542484,488
1509013542492,488
1509013542501,491
1509013542509,493
1509013542517,492
1509013542525,495
1509013542534,494
1509013542542,494
1509013542550,493
1509013542558,489
1509013542566,488
1509013542570,484
1509013542578,481
1509013542586,478
1509013542595,473
1509013542603,471
1509013542611,466
1509013542619,464
1509013542627,463
1509013542636,459
1509013542644,462
1509013542652,458
1509013542660,458
1509013542668,458
1509013542677,456
1509013542685,458
1509013542693,457
1509013542701,458
1509013542709,460
1509013542717,459
1509013542725,461
1509013542730,460
1509013542738,460
1509013542746,461
1509013542754,459
1509013542762,461
1509013542770,460
1509013542779,460
1509013542787,462
1509013542795,463
1509013542803,469
1509013542811,475
1509013542820,484
1509013542828,498
1509013542836,512
1509013542844,534
1509013542853,555
1509013542861,580
1509013542869,605
1509013542877,626
1509013542885,649
1509013542889,665
1509013542897,678
1509013542905,688
1509013542914,690
1509013542922,691
1509013542930,686
1509013542938,678
1509013542946,670
1509013542955,656
1509013542963,645
1509013542971,630
1509013542979,614
1509013542987,601
1509013542996,583
1509013543004,569
1509013543012,552
1509013543020,537
1509013543028,526
1509013543037,510
1509013543045,500
1509013543049,491
1509013543057,484
1509013543065,481
1509013543073,475
1509013543081,475
1509013543090,474
1509013543098,475
1509013543106,479
1509013543114,479
1509013543122,484
1509013543131,486
1509013543139,488
1509013543147,491
1509013543155,490
1509013543163,493
1509013543172,492
1509013543180,490
1509013543188,490
1509013543196,485
1509013543204,483
1509013543208,479
1509013543217,475
1509013543225,473
1509013543233,469
1509013543242,466
1509013543249,463
1509013543258,462
1509013543267,462
1509013543275,459
1509013543283,459
1509013543291,457
1509013543300,455
1509013543308,458
1509013543316,456
1509013543324,457
1509013543332,458
1509013543340,457
1509013543349,460
1509013543357,458
1509013543365,460
1509013543369,460
1509013543377,460
1509013543385,463
1509013543394,460
1509013543402,462
1509013543410,462
1509013543418,460
1509013543426,462
1509013543435,461
1509013543443,462
1509013543451,460
1509013543459,459
1509013543467,461
1509013543476,458
1509013543484,460
1509013543492,459
1509013543500,459
1509013543508,464
1509013543517,466
1509013543524,475
1509013543529,485
1509013543537,498
1509013543545,517
1509013543554,536
1509013543561,562
1509013543570,586
1509013543578,610
1509013543586,635
1509013543594,653
1509013543602,671
1509013543611,683
1509013543619,688
1509013543627,694
1509013543635,690
1509013543643,686
1509013543652,677
1509013543660,666
1509013543668,655
1509013543676,639
1509013543684,626
1509013543688,610
1509013543697,593
1509013543705,579
1509013543713,562
1509013543721,548
1509013543729,534
1509013543737,519
1509013543746,508
1509013543754,497
1509013543762,490
1509013543770,484
1509013543778,477
1509013543787,477
1509013543795,473
1509013543803,475
1509013543811,478
1509013543819,479
1509013543827,484
1509013543836,485
1509013543844,489
1509013543848,492
1509013543856,492
1509013543864,495
1509013543873,493
1509013543881,494
1509013543889,492
1509013543897,489
1509013543905,490
1509013543913,484
1509013543922,482
1509013543930,480
1509013543938,475
1509013543946,473
1509013543954,467
1509013543962,466
1509013543971,464
1509013543979,461
1509013543987,463
1509013543995,460
1509013544003,462
1509013544007,461
1509013544016,458
1509013544024,459
1509013544032,457
1509013544040,458
1509013544048,458
1509013544057,457
1509013544065,458
1509013544073,456
1509013544081,459
1509013544089,460
1509013544098,458
1509013544106,461
1509013544114,458
1509013544122,459
1509013544130,460
1509013544139,459
1509013544147,461
1509013544155,458
1509013544163,459
1509013544171,460
1509013544175,458
1509013544184,461
1509013544192,458
1509013544200,459
1509013544208,460
1509013544216,458
1509013544225,460
1509013544233,457
1509013544241,458
1509013544249,458
1509013544257,455
1509013544265,457
1509013544274,455
1509013544282,456
1509013544290,459
1509013544298,460
1509013544306,467
1509013544315,476
1509013544323,488
1509013544331,506
1509013544335,524
1509013544343,549
1509013544352,570
1509013544360,594
1509013544368,617
1509013544376,636
1509013544384,656
1509013544392,667
1509013544400,676
1509013544409,682
1509013544417,680
1509013544425,679
1509013544433,670
1509013544441,660
1509013544450,650
1509013544458,635
1509013544466,622
1509013544474,606
1509013544482,591
1509013544490,578
1509013544495,561
1509013544503,550
1509013544511,535
1509013544519,522
1509013544527,512
1509013544536,500
1509013544544,493
1509013544552,487
1509013544560,483
1509013544568,481
1509013544576,478
1509013544585,481
1509013544593,481
1509013544601,483
1509013544609,488
1509013544617,488
1509013544625,492
1509013544634,493
1509013544642,494
1509013544650,496
1509013544654,495
1509013544662,496
1509013544672,493
1509013544680,492
1509013544688,491
1509013544696,486
1509013544704,486
1509013544713,481
1509013544721,477
1509013544729,475
1509013544737,471
1509013544745,470
1509013544754,466
1509013544762,464
1509013544770,463
1509013544778,460
1509013544786,462
1509013544794,459
1509013544802,459
1509013544811,459
1509013544815,457
1509013544823,459
1509013544831,458
1509013544840,458
1509013544848,459
1509013544856,457
1509013544864,460
1509013544872,459
1509013544880,460
1509013544889,462
1509013544897,460
1509013544905,462
1509013544913,461
1509013544921,460
1509013544930,461
1509013544938,460
1509013544946,461
1509013544954,460
1509013544962,460
1509013544970,460
1509013544975,457
1509013544983,459
1509013544991,457
1509013544999,456
1509013545007,458
1509013545015,456
1509013545024,457
1509013545032,457
1509013545040,454
1509013545048,456
1509013545056,454
1509013545065,456
1509013545073,455
1509013545081,454
1509013545089,456
1509013545097,455
1509013545105,461
1509013545114,464
1509013545122,471
1509013545130,482
1509013545134,493
1509013545142,511
1509013545151,528
1509013545159,549
1509013545167,571
1509013545175,590
1509013545183,610
1509013545192,627
1509013545200,639
1509013545208,651
1509013545216,652
1509013545224,656
1509013545232,653
1509013545241,646
1509013545249,639
1509013545257,627
1509013545265,617
1509013545273,604
1509013545282,592
1509013545290,580
1509013545294,564
1509013545302,553
1509013545310,540
1509013545318,527
1509013545326,518
1509013545335,506
1509013545343,499
1509013545352,492
1509013545359,486
1509013545367,484
1509013545376,480
1509013545384,482
1509013545392,483
1509013545400,484
1509013545408,490
1509013545417,490
1509013545425,495
1509013545433,498
1509013545441,499
1509013545449,503
1509013545453,501
1509013545462,503
1509013545470,502
1509013545478,499
1509013545486,499
1509013545494,492
1509013545502,491
1509013545511,486
1509013545519,482
1509013545527,480
1509013545535,474
1509013545543,472
1509013545552,469
1509013545560,465
1509013545568,465
1509013545576,461
1509013545584,462
1509013545593,461
1509013545601,459
1509013545609,461
1509013545613,459
1509013545621,461
1509013545629,461
1509013545637,460
1509013545646,463
1509013545654,461
1509013545662,463
1509013545670,463
1509013545678,463
1509013545687,465
1509013545695,463
1509013545703,465
1509013545711,466
1509013545719,463
1509013545728,464
1509013545736,462
1509013545744,462
1509013545752,461
1509013545760,459
1509013545768,460
1509013545773,458
1509013545781,459
1509013545789,458
1509013545797,456
1509013545805,459
1509013545813,456
1509013545822,457
1509013545830,457
1509013545838,456
1509013545846,458
1509013545854,457
1509013545863,459
1509013545871,461
1509013545879,463
1509013545887,470
1509013545895,474
1509013545903,485
1509013545912,497
1509013545920,509
1509013545928,528
1509013545932,543
1509013545940,562
1509013545949,579
1509013545957,593
1509013545965,608
1509013545973,615
1509013545981,623
1509013545989,624
1509013545998,622
1509013546006,620
1509013546014,611
1509013546022,603
1509013546030,594
1509013546039,581
1509013546047,571
1509013546055,557
1509013546063,544
1509013546071,532
1509013546081,519
1509013546089,510
1509013546097,497
1509013546101,490
1509013546109,484
1509013546117,477
1509013546125,477
1509013546134,473
1509013546142,474
1509013546150,477
1509013546158,478
1509013546167,484
1509013546175,486
1509013546183,491
1509013546191,495
1509013546199,496
1509013546207,502
1509013546216,501
1509013546224,502
1509013546232,503
1509013546240,500
1509013546248,500
1509013546256,496
1509013546261,494
1509013546269,491
1509013546277,486
1509013546285,484
1509013546293,479
1509013546302,475
1509013546310,472
1509013546318,466
1509013546326,465
1509013546334,461
1509013546343,461
1509013546351,461
1509013546359,459
1509013546367,461
1509013546375,459
1509013546383,460
1509013546392,462
1509013546400,460
1509013546408,463
1509013546416,462
1509013546420,464
1509013546428,466
1509013546437,465
1509013546445,467
1509013546453,467
1509013546461,468
1509013546469,469
1509013546478,467
1509013546486,470
1509013546494,467
1509013546502,466
1509013546510,467
1509013546519,464
1509013546527,466
1509013546535,465
1509013546543,466
1509013546551,469
1509013546559,470
1509013546567,478
1509013546576,485
1509013546580,497
1509013546588,510
1509013546596,523
1509013546604,542
1509013546613,557
1509013546621,573
1509013546629,588
1509013546637,597
1509013546645,607
1509013546654,611
1509013546662,613
1509013546670,613
1509013546678,607
1509013546686,604
1509013546695,595
1509013546703,586
1509013546711,578
1509013546719,564
1509013546727,554
1509013546735,541
1509013546740,528
1509013546748,517
1509013546756,504
1509013546764,496
1509013546772,487
1509013546780,481
1509013546789,478
1509013546797,473
1509013546805,473
1509013546813,472
1509013546821,473
1509013546830,478
1509013546838,478
1509013546846,484
1509013546854,487
1509013546862,489
1509013546870,494
1509013546879,495
1509013546887,498
1509013546895,498
1509013546899,498
1509013546907,499
1509013546916,495
1509013546924,496
1509013546932,492
1509013546940,488
1509013546948,487
1509013546956,480
1509013546965,479
1509013546973,475
1509013546981,471
1509013546989,470
1509013546997,466
1509013547005,467
1509013547014,463
1509013547022,463
1509013547030,463
1509013547038,459
1509013547046,462
1509013547054,460
1509013547059,460
1509013547067,462
1509013547075,460
1509013547083,462
1509013547092,462
1509013547100,462
1509013547108,465
1509013547116,463
1509013547124,465
1509013547133,462
1509013547141,462
1509013547149,463
1509013547157,460
1509013547165,462
1509013547173,463
1509013547181,464
1509013547190,470
1509013547198,475
1509013547206,484
1509013547214,495
1509013547218,508
1509013547227,526
1509013547235,542
1509013547243,563
1509013547251,580
1509013547260,595
1509013547268,612
1509013547276,621
1509013547284,630
1509013547292,634
1509013547300,635
1509013547309,636
1509013547317,630
1509013547325,625
1509013547333,617
1509013547341,607
1509013547349,598
1509013547358,583
1509013547366,573
1509013547374,561
1509013547378,547
1509013547386,538
1509013547394,525
1509013547403,516
1509013547411,506
1509013547419,498
1509013547427,494
1509013547435,487
1509013547444,486
1509013547452,486
1509013547460,485
1509013547468,488
1509013547476,489
1509013547486,493
1509013547494,495
1509013547502,498
1509013547510,502
1509013547518,502
1509013547527,505
1509013547535,505
1509013547539,504
1509013547547,505
1509013547555,501
1509013547563,500
1509013547571,497
1509013547580,492
1509013547588,490
1509013547596,485
1509013547604,482
1509013547613,479
1509013547621,475
1509013547629,474
1509013547637,468
1509013547645,468
1509013547653,465
1509013547661,463
1509013547670,465
1509013547678,463
1509013547686,463
1509013547694,463
1509013547698,463
1509013547706,465
1509013547715,464
1509013547723,466
1509013547731,466
1509013547739,465
1509013547748,468
1509013547756,467
1509013547764,468
1509013547772,469
1509013547780,467
1509013547788,469
1509013547797,467
1509013547805,468
1509013547813,469
1509013547821,469
1509013547829,475
1509013547838,476
1509013547846,485
1509013547854,495
1509013547858,506
1509013547866,523
1509013547875,540
1509013547882,562
1509013547891,582
1509013547899,601
1509013547907,621
1509013547915,635
1509013547923,648
1509013547932,658
1509013547940,661
1509013547948,665
1509013547956,661
1509013547964,657
1509013547973,650
1509013547981,639
1509013547989,630
1509013547997,616
1509013548005,604
1509013548013,592
1509013548018,577
1509013548026,566
1509013548034,551
1509013548042,540
1509013548050,530
1509013548058,517
1509013548067,511
1509013548075,502
1509013548083,497
1509013548091,493
1509013548099,489
1509013548108,489
1509013548116,487
1509013548124,489
1509013548132,492
1509013548141,493
1509013548149,499
1509013548157,499
1509013548165,502
1509013548173,505
1509013548181,504
1509013548185,506
1509013548194,505
1509013548202,504
1509013548210,502
1509013548218,498
1509013548226,497
1509013548234,492
1509013548243,488
1509013548251,486
1509013548259,479
1509013548267,477
1509013548275,472
1509013548284,469
1509013548292,467
1509013548300,464
1509013548308,464
1509013548316,462
1509013548324,462
1509013548333,463
1509013548341,462
1509013548345,465
1509013548353,463
1509013548361,464
1509013548369,466
1509013548378,466
1509013548386,468
1509013548394,468
1509013548402,468
1509013548410,469
1509013548419,467
1509013548427,469
1509013548435,466
1509013548443,466
1509013548451,467
1509013548460,465
1509013548468,468
1509013548476,470
1509013548484,474
1509013548492,483
1509013548500,491
1509013548505,506
1509013548513,522
1509013548521,542
1509013548529,564
1509013548537,585
1509013548545,610
1509013548554,629
1509013548562,647
1509013548570,662
1509013548578,670
1509013548586,678
1509013548595,679
1509013548603,677
1509013548611,672
1509013548619,663
1509013548627,654
1509013548635,641
1509013548644,628
1509013548652,616
1509013548660,600
1509013548664,588
1509013548672,572
1509013548681,558
1509013548689,546
1509013548697,531
1509013548705,522
1509013548713,511
1509013548721,502
1509013548730,496
1509013548738,488
1509013548746,487
1509013548754,484
1509013548762,483
1509013548771,485
1509013548779,484
1509013548787,488
1509013548795,490
1509013548803,492
1509013548811,495
1509013548819,495
1509013548824,499
1509013548832,498
1509013548840,498
1509013548848,498
1509013548857,493
1509013548865,494
1509013548873,490
1509013548882,486
1509013548890,485
1509013548898,479
1509013548907,477
1509013548915,472
1509013548923,469
1509013548931,467
1509013548939,462
1509013548948,463
1509013548956,460
1509013548964,459
1509013548972,459
1509013548980,456
1509013548984,458
1509013548993,457
1509013549001,458
1509013549009,460
1509013549017,459
1509013549025,463
1509013549034,463
1509013549042,462
1509013549050,465
1509013549058,462
1509013549066,464
1509013549075,463
1509013549083,463
1509013549091,465
1509013549099,462
1509013549107,464
1509013549115,463
1509013549124,463
1509013549132,466
1509013549140,468
1509013549144,477
1509013549152,486
1509013549160,499
1509013549169,518
1509013549177,536
1509013549185,560
1509013549193,583
1509013549201,606
1509013549209,630
1509013549218,647
1509013549226,665
1509013549234,676
1509013549242,682
1509013549250,687
1509013549259,683
1509013549267,680
1509013549275,671
1509013549283,659
1509013549292,648
1509013549300,633
1509013549304,621
1509013549312,606
1509013549320,591
1509013549328,577
1509013549337,560
1509013549345,547
1509013549353,533
1509013549361,518
1509013549369,508
1509013549377,495
1509013549385,488
1509013549394,482
1509013549402,476
1509013549410,476
1509013549418,472
1509013549426,474
1509013549435,474
1509013549443,475
1509013549451,480
1509013549459,481
1509013549463,485
1509013549472,487
1509013549480,488
1509013549488,492
1509013549496,489
1509013549504,489
1509013549513,489
1509013549521,485
1509013549529,484
1509013549537,479
1509013549545,477
1509013549554,474
1509013549562,470
1509013549570,469
1509013549578,463
1509013549586,462
1509013549594,460
1509013549602,457
1509013549611,456
1509013549619,452
1509013549623,453
1509013549631,452
1509013549639,450
1509013549647,453
1509013549656,451
1509013549664,454
1509013549672,455
1509013549680,454
1509013549689,457
1509013549697,456
1509013549705,458
1509013549713,460
1509013549721,459
1509013549729,462
1509013549738,460
1509013549746,462
1509013549754,462
1509013549762,461
1509013549770,464
1509013549778,462
1509013549782,462
1509013549791,462
1509013549799,459
1509013549807,460
1509013549815,458
1509013549823,459
1509013549832,458
1509013549840,459
1509013549848,465
1509013549856,469
1509013549864,480
1509013549873,495
1509013549881,511
1509013549889,534
1509013549897,557
1509013549905,584
1509013549914,609
1509013549922,632
1509013549930,657
1509013549938,672
1509013549942,686
1509013549950,696
1509013549958,697
1509013549967,699
1509013549975,691
1509013549983,684
1509013549991,674
1509013549999,660
1509013550008,647
1509013550016,630
1509013550024,616
1509013550032,600
1509013550040,583
1509013550048,569
1509013550057,551
1509013550065,537
1509013550073,524
1509013550081,510
1509013550089,501
1509013550098,490
1509013550102,483
1509013550110,478
1509013550118,472
1509013550127,473
1509013550135,470
1509013550143,472
1509013550151,474
1509013550159,475
1509013550167,480
1509013550175,481
1509013550184,484
1509013550192,487
1509013550200,486
1509013550208,487
1509013550217,486
1509013550225,486
1509013550233,485
1509013550241,481
1509013550249,480
1509013550257,476
1509013550261,473
1509013550270,471
1509013550278,465
1509013550286,463
1509013550294,460
1509013550303,457
1509013550312,455
1509013550320,452
1509013550328,452
1509013550336,449
1509013550344,450
1509013550352,450
1509013550361,448
1509013550369,450
1509013550377,449
1509013550385,451
1509013550393,453
1509013550402,452
1509013550410,455
1509013550418,453
1509013550426,455
1509013550430,456
1509013550438,455
1509013550446,457
1509013550455,456
1509013550463,456
1509013550471,457
1509013550480,455
1509013550487,456
1509013550496,455
1509013550504,455
1509013550512,456
1509013550520,454
1509013550528,456
1509013550537,455
1509013550545,455
1509013550553,455
1509013550561,452
1509013550569,454
1509013550577,451
1509013550585,452
1509013550590,452
1509013550598,451
1509013550606,458
1509013550614,462
1509013550622,470
1509013550631,484
1509013550639,498
1509013550647,519
1509013550655,542
1509013550663,567
1509013550672,594
1509013550680,618
1509013550688,643
1509013550696,660
1509013550704,676
1509013550713,688
1509013550721,692
1509013550729,695
1509013550737,691
1509013550745,685
1509013550749,677
1509013550758,663
1509013550766,651
1509013550774,636
1509013550782,620
1509013550790,606
1509013550799,588
1509013550807,575
1509013550815,558
1509013550823,543
1509013550832,531
1509013550840,516
1509013550848,506
1509013550856,495
1509013550864,487
1509013550872,482
1509013550880,476
1509013550889,476
1509013550897,474
1509013550905,474
1509013550909,477
1509013550917,477
1509013550925,482
1509013550934,483
1509013550942,484
1509013550950,488
1509013550958,487
1509013550966,490
1509013550975,488
1509013550983,487
1509013550991,488
1509013550999,484
1509013551007,484
1509013551016,480
1509013551024,477
1509013551032,474
1509013551040,469
1509013551048,467
1509013551056,463
1509013551064,460
1509013551069,459
1509013551077,455
1509013551085,457
1509013551093,454
1509013551101,453
1509013551110,455
1509013551118,451
1509013551126,453
1509013551134,452
1509013551142,451
1509013551150,453
1509013551159,452
1509013551167,454
1509013551175,453
1509013551183,453
1509013551192,455
1509013551200,453
1509013551208,456
1509013551216,455
1509013551224,456
1509013551228,457
1509013551237,456
1509013551245,457
1509013551253,456
1509013551261,456
1509013551269,457
1509013551278,455
1509013551286,456
1509013551294,455
1509013551302,453
1509013551310,456
1509013551319,453
1509013551326,457
1509013551335,460
1509013551343,466
1509013551352,477
1509013551360,487
1509013551367,504
1509013551376,521
1509013551384,542
1509013551388,568
1509013551396,589
1509013551404,614
1509013551413,634
1509013551421,649
1509013551429,664
1509013551437,670
1509013551445,675
1509013551453,674
1509013551462,668
1509013551470,661
1509013551478,650
1509013551486,639
1509013551494,625
1509013551503,609
1509013551511,596
1509013551519,577
1509013551527,563
1509013551535,548
1509013551543,532
1509013551548,520
1509013551556,506
1509013551564,497
1509013551572,487
1509013551580,477
1509013551588,473
1509013551597,466
1509013551605,466
1509013551613,464
1509013551621,463
1509013551629,468
1509013551638,467
1509013551646,472
1509013551654,475
1509013551662,477
1509013551671,482
1509013551679,481
1509013551687,484
1509013551695,484
1509013551703,483
1509013551708,484
1509013551716,479
1509013551724,478
1509013551733,477
1509013551741,472
1509013551749,472
1509013551757,467
1509013551765,465
1509013551774,462
1509013551782,459
1509013551790,458
1509013551798,454
1509013551806,454
1509013551815,453
1509013551823,450
1509013551831,452
1509013551839,450
1509013551847,450
1509013551855,451
1509013551864,449
1509013551868,452
1509013551876,451
1509013551884,453
1509013551892,453
1509013551901,453
1509013551909,456
1509013551917,454
1509013551925,456
1509013551933,457
1509013551941,455
1509013551950,457
1509013551958,456
1509013551966,457
1509013551974,457
1509013551982,455
1509013551990,457
1509013551999,454
1509013552007,457
1509013552015,458
1509013552023,460
1509013552027,467
1509013552036,474
1509013552044,488
1509013552052,503
1509013552060,519
1509013552068,542
1509013552077,562
1509013552085,584
1509013552093,604
1509013552101,619
1509013552109,636
1509013552117,644
1509013552125,650
1509013552134,653
1509013552142,650
1509013552150,645
1509013552158,635
1509013552167,624
1509013552175,611
1509013552183,596
1509013552187,583
1509013552195,566
1509013552203,552
1509013552212,539
1509013552220,522
1509013552228,511
1509013552236,499
1509013552244,489
1509013552253,480
1509013552261,472
1509013552269,469
1509013552277,464
1509013552285,463
1509013552294,464
1509013552302,465
1509013552310,470
1509013552318,471
1509013552326,476
1509013552335,481
1509013552343,482
1509013552347,487
1509013552355,488
1509013552363,490
1509013552371,490
1509013552379,487
1509013552388,488
1509013552396,484
1509013552404,482
1509013552412,480
1509013552420,474
1509013552429,472
1509013552437,468
1509013552445,464
1509013552453,462
1509013552461,457
1509013552469,456
1509013552478,453
1509013552486,451
1509013552494,450
1509013552502,447
1509013552506,449
1509013552515,447
1509013552523,448
1509013552531,448
1509013552539,447
1509013552547,450
1509013552556,450
1509013552564,451
1509013552572,452
1509013552580,451
1509013552588,453
1509013552596,452
1509013552604,452
1509013552613,454
1509013552621,452
1509013552629,455
1509013552637,456
1509013552645,459
1509013552654,465
1509013552662,471
1509013552670,484
1509013552674,495
1509013552682,511
1509013552691,530
1509013552699,548
1509013552707,569
1509013552715,587
1509013552724,604
1509013552732,619
1509013552740,628
1509013552748,636
1509013552756,638
1509013552764,637
1509013552773,634
1509013552781,625
1509013552789,618
1509013552797,605
1509013552805,593
1509013552813,581
1509013552821,564
1509013552829,552
1509013552834,537
1509013552842,522
1509013552850,511
1509013552858,496
1509013552867,487
1509013552875,476
1509013552883,469
1509013552891,464
1509013552899,458
1509013552907,460
1509013552916,459
1509013552924,461
1509013552932,465
1509013552940,467
1509013552948,472
1509013552957,476
1509013552965,479
1509013552973,483
1509013552981,484
1509013552989,488
1509013552993,487
1509013553002,486
1509013553010,486
1509013553018,482
1509013553026,481
1509013553034,477
1509013553043,474
1509013553051,472
1509013553059,466
1509013553067,465
1509013553075,460
1509013553083,457
1509013553092,455
1509013553100,451
1509013553108,452
1509013553117,449
1509013553125,448
1509013553134,449
1509013553142,446
1509013553150,447
1509013553154,447
1509013553162,447
1509013553170,448
1509013553179,446
1509013553187,449
1509013553195,449
1509013553203,449
1509013553211,452
1509013553219,450
1509013553228,454
1509013553236,456
1509013553244,460
1509013553252,469
1509013553260,478
1509013553269,493
1509013553277,507
1509013553285,524
1509013553293,545
1509013553301,563
1509013553309,585
1509013553314,601
1509013553322,616
1509013553330,629
1509013553338,634
1509013553346,639
1509013553355,639
1509013553363,635
1509013553371,629
1509013553379,618
1509013553387,608
1509013553395,595
1509013553404,581
1509013553412,569
1509013553420,552
1509013553428,539
1509013553436,525
1509013553444,510
1509013553453,500
1509013553461,488
1509013553469,481
1509013553473,473
1509013553481,467
1509013553490,465
1509013553498,462
1509013553506,464
1509013553514,465
1509013553522,466
1509013553530,472
1509013553539,474
1509013553547,480
1509013553555,484
1509013553563,486
1509013553572,489
1509013553580,489
1509013553588,492
1509013553596,490
1509013553604,488
1509013553612,489
1509013553620,484
1509013553628,483
1509013553633,479
1509013553641,474
1509013553649,473
1509013553657,468
1509013553665,466
1509013553674,462
1509013553682,459
1509013553690,458
1509013553698,453
1509013553706,453
1509013553715,451
1509013553723,449
1509013553731,451
1509013553739,448
1509013553748,449
1509013553757,449
1509013553764,448
1509013553772,450
1509013553780,449
1509013553788,451
1509013553793,450
1509013553801,450
1509013553809,453
1509013553817,453
1509013553825,458
1509013553833,464
1509013553841,470
1509013553850,482
1509013553858,494
1509013553866,511
1509013553874,530
1509013553882,548
1509013553891,571
1509013553899,588
1509013553907,607
1509013553915,621
1509013553923,630
1509013553932,640
1509013553940,641
1509013553948,640
1509013553952,636
1509013553960,627
1509013553968,620
1509013553977,606
1509013553985,596
1509013553993,582
1509013554001,566
1509013554009,553
1509013554018,536
1509013554026,523
1509013554034,510
1509013554042,497
1509013554050,488
1509013554059,478
1509013554067,473
1509013554075,468
1509013554083,464
1509013554091,465
1509013554099,464
1509013554107,471
1509013554112,473
1509013554120,474
1509013554128,479
1509013554136,482
1509013554144,485
1509013554153,490
1509013554161,490
1509013554169,493
1509013554177,492
1509013554185,493
1509013554194,493
1509013554202,489
1509013554210,489
1509013554218,483
1509013554226,481
1509013554234,477
1509013554243,471
1509013554251,469
1509013554259,464
1509013554267,462
1509013554271,460
1509013554279,457
1509013554288,458
1509013554296,454
1509013554304,455
1509013554312,455
1509013554320,452
1509013554329,454
1509013554337,453
1509013554345,454
1509013554353,456
1509013554361,454
1509013554369,457
1509013554378,455
1509013554386,457
1509013554394,458
1509013554402,457
1509013554410,462
1509013554419,462
1509013554427,467
1509013554435,473
1509013554439,480
1509013554447,494
1509013554455,506
1509013554464,524
1509013554472,543
1509013554480,561
1509013554488,583
1509013554496,599
1509013554505,614
1509013554513,627
1509013554522,634
1509013554530,640
1509013554538,639
1509013554546,637
1509013554555,632
1509013554563,620
1509013554571,612
1509013554579,597
1509013554587,583
1509013554595,569
1509013554600,553
1509013554608,539
1509013554616,523
1509013554624,510
1509013554632,498
1509013554641,487
1509013554649,480
1509013554657,471
1509013554665,468
1509013554673,467
1509013554682,465
1509013554690,470
1509013554698,471
1509013554706,476
1509013554714,482
1509013554722,485
1509013554731,492
1509013554739,495
1509013554747,500
1509013554755,502
1509013554759,501
1509013554767,503
1509013554776,501
1509013554784,499
1509013554792,498
1509013554800,493
1509013554808,491
1509013554817,486
1509013554825,482
1509013554833,478
1509013554841,472
1509013554849,470
1509013554858,465
1509013554866,462
1509013554874,462
1509013554882,457
1509013554890,458
1509013554898,456
1509013554907,455
1509013554915,456
1509013554919,454
1509013554927,455
1509013554935,455
1509013554944,456
1509013554952,457
1509013554960,455
1509013554968,458
1509013554976,458
1509013554984,459
1509013554993,462
1509013555001,463
1509013555009,470
1509013555017,476
1509013555025,486
1509013555034,499
1509013555042,513
1509013555050,533
1509013555058,551
1509013555066,570
1509013555074,590
1509013555079,604
1509013555087,621
1509013555095,631
1509013555103,638
1509013555112,643
1509013555119,641
1509013555128,638
1509013555136,630
1509013555144,620
1509013555152,609
1509013555160,593
1509013555169,580
1509013555177,563
1509013555185,547
1509013555193,533
1509013555201,516
1509013555210,504
1509013555218,492
1509013555226,481
1509013555234,474
1509013555238,466
1509013555246,464
1509013555255,462
1509013555263,463
1509013555271,468
1509013555279,469
1509013555287,475
1509013555296,480
1509013555304,484
1509013555312,490
1509013555320,492
1509013555328,496
1509013555336,497
1509013555345,498
1509013555353,500
1509013555361,497
1509013555369,496
1509013555377,494
1509013555385,489
1509013555394,487
1509013555398,480
1509013555406,477
1509013555414,472
1509013555422,468
1509013555430,466
1509013555439,460
1509013555447,460
1509013555455,456
1509013555463,454
1509013555471,455
1509013555480,451
1509013555488,451
1509013555496,450
1509013555504,449
1509013555513,451
1509013555521,450
1509013555529,453
1509013555537,453
1509013555545,453
1509013555553,456
1509013555557,454
1509013555566,457
1509013555574,457
1509013555582,459
1509013555590,463
1509013555598,466
1509013555606,474
1509013555615,484
1509013555623,496
1509013555631,513
1509013555639,530
1509013555647,553
1509013555656,575
1509013555664,597
1509013555672,620
1509013555680,636
1509013555688,652
1509013555697,663
1509013555705,668
1509013555713,671
1509013555717,666
1509013555725,661
1509013555733,652
1509013555742,639
1509013555750,627
1509013555758,609
1509013555766,595
1509013555774,578
1509013555783,560
1509013555791,545
1509013555799,528
1509013555807,515
1509013555815,502
1509013555823,491
1509013555832,484
1509013555840,476
1509013555848,474
1509013555856,471
1509013555864,470
1509013555872,473
1509013555877,474
1509013555885,479
1509013555893,484
1509013555901,487
1509013555910,493
1509013555918,495
1509013555926,499
1509013555935,500
1509013555943,500
1509013555951,501
1509013555959,497
1509013555968,497
1509013555976,494
1509013555984,489
1509013555992,487
1509013556000,481
1509013556009,477
1509013556017,472
1509013556025,467
1509013556033,465
1509013556037,459
1509013556045,459
1509013556054,456
1509013556062,453
1509013556070,454
1509013556078,451
1509013556086,451
1509013556095,452
1509013556103,452
1509013556111,453
1509013556119,453
1509013556127,455
1509013556135,455
1509013556144,456
1509013556152,458
1509013556160,456
1509013556168,458
1509013556176,459
1509013556185,458
1509013556193,460
1509013556197,459
1509013556205,460
1509013556213,460
1509013556221,460
1509013556230,462
1509013556238,463
1509013556246,470
1509013556254,478
1509013556262,489
1509013556271,507
1509013556279,523
1509013556287,546
1509013556295,570
1509013556303,593
1509013556312,619
1509013556320,639
1509013556328,659
1509013556336,673
1509013556344,681
1509013556352,688
1509013556360,686
1509013556365,684
1509013556373,676
1509013556381,663
1509013556389,651
1509013556397,634
1509013556406,619
1509013556414,602
1509013556422,583
1509013556430,569
1509013556438,549
1509013556446,535
1509013556455,520
1509013556463,506
1509013556471,497
1509013556479,487
1509013556487,480
1509013556496,476
1509013556504,471
1509013556512,473
1509013556520,473
1509013556524,476
1509013556533,479
1509013556541,481
1509013556549,487
1509013556557,488
1509013556565,493
1509013556573,495
1509013556582,495
1509013556590,498
1509013556598,496
1509013556606,496
1509013556614,495
1509013556623,491
1509013556631,489
1509013556639,484
1509013556647,481
1509013556655,476
1509013556663,469
1509013556672,467
1509013556680,461
1509013556684,458
1509013556692,457
1509013556700,453
1509013556709,452
1509013556717,450
1509013556725,449
1509013556733,449
1509013556741,447
1509013556749,449
1509013556758,448
1509013556766,449
1509013556774,451
1509013556782,450
1509013556790,453
1509013556799,454
1509013556807,455
1509013556815,456
1509013556823,455
1509013556832,458
1509013556839,457
1509013556844,459
1509013556852,460
1509013556860,458
1509013556868,460
1509013556876,458
1509013556884,458
1509013556893,459
1509013556901,458
1509013556909,462
1509013556917,463
1509013556925,470
1509013556934,479
1509013556942,490
1509013556950,508
1509013556958,526
1509013556966,551
1509013556975,577
1509013556983,600
1509013556991,626
1509013556999,647
1509013557003,665
1509013557011,680
1509013557020,687
1509013557028,694
1509013557036,691
1509013557044,687
1509013557053,679
1509013557061,666
1509013557069,654
1509013557077,637
1509013557085,620
1509013557093,603
1509013557101,584
1509013557110,568
1509013557118,550
1509013557126,535
1509013557134,520
1509013557142,506
1509013557151,496
1509013557159,486
1509013557163,479
1509013557171,476
1509013557179,470
1509013557187,471
1509013557196,471
1509013557204,474
1509013557212,478
1509013557220,480
1509013557228,487
1509013557236,491
1509013557245,495
1509013557253,498
1509013557261,497
1509013557269,500
1509013557278,498
1509013557286,496
1509013557294,495
1509013557302,490
1509013557310,488
1509013557318,483
1509013557322,478
1509013557331,475
1509013557340,470
1509013557348,467
1509013557356,463
1509013557365,460
1509013557373,460
1509013557381,455
1509013557389,455
1509013557397,453
1509013557405,452
1509013557414,452
1509013557422,450
1509013557430,452
1509013557438,452
1509013557446,453
1509013557454,455
1509013557463,453
1509013557471,456
1509013557479,456
1509013557483,457
1509013557491,460
1509013557500,458
1509013557508,460
1509013557516,459
1509013557524,459
1509013557532,460
1509013557540,458
1509013557549,460
1509013557557,458
1509013557565,458
1509013557573,459
1509013557581,456
1509013557590,457
1509013557598,456
1509013557606,457
1509013557614,463
1509013557622,467
1509013557630,478
1509013557638,492
1509013557643,510
1509013557651,532
1509013557659,556
1509013557667,584
1509013557675,606
1509013557684,628
1509013557692,651
1509013557700,665
1509013557708,679
1509013557716,687
1509013557725,688
1509013557733,688
1509013557741,679
1509013557749,671
1509013557757,657
1509013557765,641
1509013557774,626
1509013557782,606
1509013557790,592
1509013557798,574
1509013557802,556
1509013557810,541
1509013557819,524
1509013557827,511
1509013557835,499
1509013557843,488
1509013557851,481
1509013557860,472
1509013557868,470
1509013557876,468
1509013557884,467
1509013557892,472
1509013557901,472
1509013557909,477
1509013557917,481
1509013557925,485
1509013557933,490
1509013557942,491
1509013557950,495
1509013557958,496
1509013557962,495
1509013557970,496
1509013557978,493
1509013557986,492
1509013557995,489
1509013558003,483
1509013558011,481
1509013558019,474
1509013558027,472
1509013558036,466
1509013558044,461
1509013558052,461
1509013558060,455
1509013558068,454
1509013558077,452
1509013558085,450
1509013558093,450
1509013558101,448
1509013558109,449
1509013558117,449
1509013558121,448
1509013558130,451
1509013558138,449
1509013558146,452
1509013558154,453
1509013558163,454
1509013558171,456
1509013558179,455
1509013558187,457
1509013558195,458
1509013558203,458
1509013558212,460
1509013558220,459
1509013558228,460
1509013558236,460
1509013558244,459
1509013558253,460
1509013558261,457
1509013558269,457
1509013558277,458
1509013558281,457
1509013558289,462
1509013558298,464
1509013558306,474
1509013558314,486
1509013558322,500
1509013558330,521
1509013558338,540
1509013558347,564
1509013558355,588
1509013558363,609
1509013558371,630
1509013558379,646
1509013558388,664
1509013558396,673
1509013558404,677
1509013558412,678
1509013558420,670
1509013558428,665
1509013558437,653
1509013558441,639
1509013558449,624
1509013558457,602
1509013558465,584
1509013558474,569
1509013558482,554
1509013558490,539
1509013558498,522
1509013558506,510
1509013558514,497
1509013558523,485
1509013558531,475
1509013558539,463
1509013558547,460
1509013558556,459
1509013558564,458
1509013558572,461
1509013558580,463
1509013558588,469
1509013558596,474
1509013558604,478
1509013558609,485
1509013558617,487
1509013558625,492
1509013558633,494
1509013558641,493
1509013558649,495
1509013558658,492
1509013558666,490
1509013558674,488
1509013558682,484
1509013558691,481
1509013558699,475
1509013558707,472
1509013558716,468
1509013558723,463
1509013558731,461
1509013558739,456
1509013558749,455
1509013558757,453
1509013558765,449
1509013558769,450
1509013558777,448
1509013558786,449
1509013558794,450
1509013558802,450
1509013558810,454
1509013558818,453
1509013558826,455
1509013558835,455
1509013558843,454
1509013558851,457
1509013558859,457
1509013558867,460
1509013558876,459
1509013558884,458
1509013558892,459
1509013558900,455
1509013558908,456
1509013558917,456
1509013558924,454
1509013558929,457
1509013558937,456
1509013558945,459
1509013558954,465
1509013558962,470
1509013558970,482
1509013558978,493
1509013558986,509
1509013558994,528
1509013559002,547
1509013559011,570
1509013559019,589
1509013559027,608
1509013559035,625
1509013559043,637
1509013559052,647
1509013559060,652
1509013559068,653
1509013559076,650
1509013559084,642
1509013559088,635
1509013559097,621
1509013559105,607
1509013559113,591
1509013559121,572
1509013559129,557
1509013559138,541
1509013559146,525
1509013559154,511
1509013559162,496
1509013559170,485
1509013559179,474
1509013559187,468
1509013559195,463
1509013559203,461
1509013559212,463
1509013559219,465
1509013559228,469
1509013559236,474
1509013559244,477
1509013559248,484
1509013559257,487
1509013559264,491
1509013559273,495
1509013559281,496
1509013559289,501
1509013559297,499
1509013559306,499
1509013559314,497
1509013559322,493
1509013559330,492
1509013559338,487
1509013559346,483
1509013559355,479
1509013559363,472
1509013559371,469
1509013559379,464
1509013559387,461
1509013559395,458
1509013559403,454
1509013559408,455
1509013559416,451
1509013559424,449
1509013559432,450
1509013559440,447
1509013559449,450
1509013559457,450
1509013559465,452
1509013559474,458
1509013559482,458
1509013559490,458
1509013559498,457
1509013559506,461
1509013559514,466
1509013559523,465
1509013559531,468
1509013559539,467
1509013559547,466
1509013559555,469
1509013559563,466
1509013559567,468
1509013559576,471
1509013559584,480
1509013559592,492
1509013559600,505
1509013559608,525
1509013559617,544
1509013559625,564
1509013559633,584
1509013559641,600
1509013559649,617
1509013559658,629
1509013559666,639
1509013559674,646
1509013559682,645
1509013559690,644
1509013559698,637
1509013559707,628
1509013559715,618
1509013559723,602
1509013559727,589
1509013559736,572
1509013559744,554
1509013559752,539
1509013559760,521
1509013559768,507
1509013559776,493
1509013559784,483
1509013559793,476
1509013559801,468
1509013559809,466
1509013559817,464
1509013559826,465
1509013559834,470
1509013559842,471
1509013559850,479
1509013559858,483
1509013559866,489
1509013559874,496
1509013559883,501
1509013559887,505
1509013559895,506
1509013559903,506
1509013559911,507
1509013559919,504
1509013559928,504
1509013559936,500
1509013559944,495
1509013559952,493
1509013559960,486
1509013559969,482
1509013559977,477
1509013559985,473
1509013559993,470
1509013560001,464
1509013560009,462
1509013560018,460
1509013560026,459
1509013560034,460
1509013560042,456
1509013560046,458
1509013560055,463
1509013560063,460
1509013560071,463
1509013560079,458
1509013560087,458
1509013560096,457
1509013560104,457
1509013560112,459
1509013560120,458
1509013560128,462
1509013560136,464
1509013560145,467
1509013560154,475
1509013560162,482
1509013560170,495
1509013560178,508
1509013560187,525
1509013560195,547
1509013560203,567
1509013560207,590
1509013560215,611
1509013560223,630
1509013560232,649
1509013560240,660
1509013560248,670
1509013560256,675
1509013560264,675
1509013560272,673
1509013560281,664
1509013560289,655
1509013560297,641
1509013560305,625
1509013560314,611
1509013560322,592
1509013560330,576
1509013560338,559
1509013560346,541
1509013560354,527
1509013560362,510
1509013560367,499
1509013560375,489
1509013560383,481
1509013560391,477
1509013560399,472
1509013560407,473
1509013560416,475
1509013560424,477
1509013560432,484
1509013560440,487
1509013560449,494
1509013560457,499
1509013560465,503
1509013560473,507
1509013560481,508
1509013560489,510
1509013560498,510
1509013560506,508
1509013560514,508
1509013560522,502
1509013560526,499
1509013560534,494
1509013560543,488
1509013560551,485
1509013560559,478
1509013560567,476
1509013560575,472
1509013560584,467
1509013560592,466
1509013560600,462
1509013560608,461
1509013560616,461
1509013560624,458
1509013560633,460
1509013560641,458
1509013560649,459
1509013560657,463
1509013560665,461
1509013560674,461
1509013560682,460
1509013560686,462
1509013560694,463
1509013560702,464
1509013560710,467
1509013560718,468
1509013560727,474
1509013560735,484
1509013560743,493
1509013560752,510
1509013560760,526
1509013560768,550
1509013560776,575
1509013560784,599
1509013560792,626
1509013560800,647
1509013560809,669
1509013560817,686
1509013560825,696
1509013560833,706
1509013560841,706
1509013560849,705
1509013560854,700
1509013560862,690
1509013560870,679
1509013560878,663
1509013560886,647
1509013560895,630
1509013560903,611
1509013560911,593
1509013560919,572
1509013560927,555
1509013560935,537
1509013560944,518
1509013560952,506
1509013560960,491
1509013560968,482
1509013560976,476
1509013560985,470
1509013560993,469
1509013561001,467
1509013561009,470
1509013561013,473
1509013561021,476
1509013561029,482
1509013561038,485
1509013561046,490
1509013561054,494
1509013561062,495
1509013561070,498
1509013561079,497
1509013561087,498
1509013561095,496
1509013561103,492
1509013561112,491
1509013561119,484
1509013561128,482
1509013561136,478
1509013561144,472
1509013561152,469
1509013561160,464
1509013561168,462
1509013561173,461
1509013561181,457
1509013561189,457
1509013561197,455
1509013561205,455
1509013561214,456
1509013561222,454
1509013561230,458
1509013561238,457
1509013561246,459
1509013561255,460
1509013561263,459
1509013561271,461
1509013561279,460
1509013561287,461
1509013561296,462
1509013561304,461
1509013561312,464
1509013561320,465
1509013561328,470
1509013561333,477
1509013561341,484
1509013561349,501
1509013561357,516
1509013561365,538
1509013561373,565
1509013561382,591
1509013561390,621
1509013561398,647
1509013561406,673
1509013561414,696
1509013561422,711
1509013561431,726
1509013561439,730
1509013561447,733
1509013561455,730
1509013561463,721
1509013561472,711
1509013561480,696
1509013561488,681
1509013561492,664
1509013561500,643
1509013561509,626
1509013561517,603
1509013561525,584
1509013561533,566
1509013561541,544
1509013561549,527
1509013561559,509
1509013561567,496
1509013561575,484
1509013561583,472
1509013561591,466
1509013561599,459
1509013561608,459
1509013561616,460
1509013561624,459
1509013561632,465
1509013561640,467
1509013561648,471
1509013561653,477
1509013561661,478
1509013561669,483
1509013561677,484
1509013561685,486
1509013561694,487
1509013561702,484
1509013561710,484
1509013561718,480
1509013561726,477
1509013561734,475
1509013561743,469
1509013561751,468
1509013561759,463
1509013561767,459
1509013561775,457
1509013561783,452
1509013561792,451
1509013561800,449
1509013561808,447
1509013561812,447
1509013561820,446
1509013561829,448
1509013561837,447
1509013561845,448
1509013561853,449
1509013561861,448
1509013561869,452
1509013561878,451
1509013561886,453
1509013561894,455
1509013561902,454
1509013561910,458
1509013561919,458
1509013561927,459
1509013561935,460
1509013561943,459
1509013561952,461
1509013561960,458
1509013561968,458
1509013561972,459
1509013561980,457
1509013561988,459
1509013561997,458
1509013562005,460
1509013562013,466
1509013562021,474
1509013562029,488
1509013562037,504
1509013562046,528
1509013562054,557
1509013562062,585
1509013562070,620
1509013562078,651
1509013562086,681
1509013562095,709
1509013562103,729
1509013562111,746
1509013562119,755
1509013562127,760
1509013562132,760
1509013562140,751
1509013562148,743
1509013562156,728
1509013562164,711
1509013562172,693
1509013562181,670
1509013562189,651
1509013562197,627
1509013562205,604
1509013562213,583
1509013562222,559
1509013562230,539
1509013562238,518
1509013562246,500
1509013562254,486
1509013562262,470
1509013562271,463
1509013562279,454
1509013562287,450
1509013562291,450
1509013562299,448
1509013562308,452
1509013562316,454
1509013562324,458
1509013562332,462
1509013562340,463
1509013562349,468
1509013562357,469
1509013562365,470
1509013562373,473
1509013562381,471
1509013562389,472
1509013562398,471
1509013562406,468
1509013562414,467
1509013562422,462
1509013562430,461
1509013562439,458
1509013562446,455
1509013562451,453
1509013562459,448
1509013562467,449
1509013562475,446
1509013562484,444
1509013562492,444
1509013562500,442
1509013562508,443
1509013562516,443
1509013562525,443
1509013562533,445
1509013562541,444
1509013562549,447
1509013562557,448
1509013562566,448
1509013562574,452
1509013562582,451
1509013562590,453
1509013562598,453
1509013562606,453
1509013562610,454
1509013562619,453
1509013562627,454
1509013562635,454
1509013562643,453
1509013562652,456
1509013562660,452
1509013562668,454
1509013562676,452
1509013562684,451
1509013562692,452
1509013562700,447
1509013562709,450
1509013562717,450
1509013562725,450
1509013562734,451
1509013562741,449
1509013562750,450
1509013562758,450
1509013562766,450
1509013562770,452
1509013562778,450
1509013562786,451
1509013562795,451
1509013562803,450
1509013562811,454
1509013562819,455
1509013562827,463
1509013562836,471
1509013562844,485
1509013562852,505
1509013562860,526
1509013562868,557
1509013562876,588
1509013562885,621
1509013562893,657
1509013562901,687
1509013562909,716
1509013562917,738
1509013562925,754
1509013562929,766
1509013562938,768
1509013562946,766
1509013562954,759
1509013562963,747
1509013562972,733
1509013562980,713
1509013562988,694
1509013562996,672
1509013563004,649
1509013563013,628
1509013563021,603
1509013563029,582
1509013563037,559
1509013563045,537
1509013563054,521
1509013563062,502
1509013563070,488
1509013563078,476
1509013563086,466
1509013563090,463
1509013563098,456
1509013563107,456
1509013563115,456
1509013563123,458
1509013563131,463
1509013563139,464
1509013563148,471
1509013563156,474
1509013563164,477
1509013563172,482
1509013563180,481
1509013563189,483
1509013563197,484
1509013563205,481
1509013563213,481
1509013563221,476
1509013563229,475
1509013563238,471
1509013563246,467
1509013563254,465
1509013563258,459
1509013563266,458
1509013563274,455
1509013563283,451
1509013563291,450
1509013563299,448
1509013563307,448
1509013563316,447
1509013563323,446
1509013563332,447
1509013563340,447
1509013563348,449
1509013563356,450
1509013563364,449
1509013563373,452
1509013563381,452
1509013563389,454
1509013563397,454
1509013563405,453
1509013563413,456
1509013563418,455
1509013563426,456
1509013563434,457
1509013563442,456
1509013563450,458
1509013563459,454
1509013563467,455
1509013563475,455
1509013563483,453
1509013563491,455
1509013563500,453
1509013563508,453
1509013563516,453
1509013563524,451
1509013563532,452
1509013563540,449
1509013563549,451
1509013563557,451
1509013563565,449
1509013563573,451
1509013563577,449
1509013563585,450
1509013563594,450
1509013563602,448
1509013563610,450
1509013563618,448
1509013563626,449
1509013563635,450
1509013563643,453
1509013563651,461
1509013563659,467
1509013563667,481
1509013563676,499
1509013563684,519
1509013563692,546
1509013563700,572
1509013563708,602
1509013563716,631
1509013563724,656
1509013563733,681
1509013563737,698
1509013563745,712
1509013563753,720
1509013563761,720
1509013563770,718
1509013563778,707
1509013563786,695
1509013563794,680
1509013563802,659
1509013563810,640
1509013563819,617
1509013563827,596
1509013563835,575
1509013563843,552
1509013563852,534
1509013563860,512
1509013563868,497
1509013563876,482
1509013563884,469
1509013563892,462
1509013563897,455
1509013563905,453
1509013563913,454
1509013563921,454
1509013563929,460
1509013563937,463
1509013563946,469
1509013563954,475
1509013563962,479
1509013563970,486
1509013563978,488
1509013563986,491
1509013563995,493
1509013564003,492
1509013564011,493
1509013564019,490
1509013564027,488
1509013564036,484
1509013564044,478
1509013564052,475
1509013564056,468
1509013564064,464
1509013564073,461
1509013564081,456
1509013564089,455
1509013564097,449
1509013564105,448
1509013564113,447
1509013564122,444
1509013564130,446
1509013564138,443
1509013564146,445
1509013564154,445
1509013564163,445
1509013564171,449
1509013564179,449
1509013564187,451
1509013564195,453
1509013564203,453
1509013564212,456
1509013564216,455
1509013564224,457
1509013564232,458
1509013564240,456
1509013564248,458
1509013564257,456
1509013564265,457
1509013564273,458
1509013564281,456
1509013564289,457
1509013564298,455
1509013564306,455
1509013564314,455
1509013564322,452
1509013564331,453
1509013564339,452
1509013564347,452
1509013564355,452
1509013564363,451
1509013564372,455
1509013564376,459
1509013564385,468
1509013564393,481
1509013564401,495
1509013564409,517
1509013564417,538
1509013564425,564
1509013564434,591
1509013564442,615
1509013564450,643
1509013564458,661
1509013564466,677
1509013564475,689
1509013564483,693
1509013564491,696
1509013564499,690
1509013564507,681
1509013564516,671
1509013564524,655
1509013564532,640
1509013564536,620
1509013564544,601
1509013564552,581
1509013564561,559
1509013564569,541
1509013564577,522
1509013564585,504
1509013564593,490
1509013564602,474
1509013564610,464
1509013564618,454
1509013564626,450
1509013564634,448
1509013564642,445
1509013564650,449
1509013564659,451
1509013564667,455
1509013564675,461
1509013564683,465
1509013564692,472
1509013564696,475
1509013564704,479
1509013564712,483
1509013564720,483
1509013564728,485
1509013564737,483
1509013564745,483
1509013564753,481
1509013564761,476
1509013564769,475
1509013564777,468
1509013564786,463
1509013564794,462
1509013564802,456
1509013564810,454
1509013564818,451
1509013564827,448
1509013564835,447
1509013564843,443
1509013564851,444
1509013564855,441
1509013564863,441
1509013564872,442
1509013564880,440
1509013564888,443
1509013564896,443
1509013564904,444
1509013564913,446
1509013564921,446
1509013564929,448
1509013564937,448
1509013564945,450
1509013564953,451
1509013564962,450
1509013564970,453
1509013564978,452
1509013564986,452
1509013564994,454
1509013565003,452
1509013565011,454
1509013565015,454
1509013565023,454
1509013565032,453
1509013565040,451
1509013565048,451
1509013565056,449
1509013565065,447
1509013565072,449
1509013565081,446
1509013565088,448
1509013565097,448
1509013565105,451
1509013565113,456
1509013565121,462
1509013565130,477
1509013565138,492
1509013565146,514
1509013565154,540
1509013565162,565
1509013565170,597
1509013565175,624
1509013565183,650
1509013565191,676
1509013565199,693
1509013565207,708
1509013565216,716
1509013565224,718
1509013565232,716
1509013565240,707
1509013565248,699
1509013565257,684
1509013565264,668
1509013565273,652
1509013565281,630
1509013565289,612
1509013565297,592
1509013565305,571
1509013565314,554
1509013565322,534
1509013565330,519
1509013565334,503
1509013565342,489
1509013565350,480
1509013565359,468
1509013565367,464
1509013565375,460
1509013565383,457
1509013565391,459
1509013565400,459
1509013565408,463
1509013565416,466
1509013565424,469
1509013565433,475
1509013565441,476
1509013565449,481
1509013565457,482
1509013565465,483
1509013565473,485
1509013565481,482
1509013565490,482
1509013565498,479
1509013565502,476
1509013565510,475
1509013565518,468
1509013565527,467
1509013565535,461
1509013565543,457
1509013565551,455
1509013565559,449
1509013565567,448
1509013565576,445
1509013565584,444
1509013565592,443
1509013565600,440
1509013565608,441
1509013565617,439
1509013565625,438
1509013565633,441
1509013565641,439
1509013565649,441
1509013565657,442
1509013565662,443
1509013565670,445
1509013565678,443
1509013565686,446
1509013565695,445
1509013565702,446
1509013565711,448
1509013565719,447
1509013565727,449
1509013565735,449
1509013565743,448
1509013565752,450
1509013565760,448
1509013565768,449
1509013565777,448
1509013565785,447
1509013565794,449
1509013565802,446
1509013565810,447
1509013565818,446
1509013565822,444
1509013565830,446
1509013565839,444
1509013565847,449
1509013565855,453
1509013565863,460
1509013565871,473
1509013565879,486
1509013565888,508
1509013565896,531
1509013565904,559
1509013565912,589
1509013565920,616
1509013565929,644
1509013565937,668
1509013565945,687
1509013565953,705
1509013565961,712
1509013565969,718
1509013565978,716
1509013565982,709
1509013565990,701
1509013565998,686
1509013566006,673
1509013566015,655
1509013566023,636
1509013566031,619
1509013566039,597
1509013566047,579
1509013566055,561
1509013566064,543
1509013566072,527
1509013566080,509
1509013566088,497
1509013566096,484
1509013566104,473
1509013566113,468
1509013566121,460
1509013566129,459
1509013566137,458
1509013566141,458
1509013566149,462
1509013566158,463
1509013566166,468
1509013566174,471
1509013566182,474
1509013566190,479
1509013566199,479
1509013566207,482
1509013566215,483
1509013566223,482
1509013566232,482
1509013566240,478
1509013566248,477
1509013566256,473
1509013566264,470
1509013566272,468
1509013566281,462
1509013566289,461
1509013566297,457
1509013566301,453
1509013566309,452
1509013566317,448
1509013566326,446
1509013566334,445
1509013566342,442
1509013566350,442
1509013566358,440
1509013566366,441
1509013566375,440
1509013566383,440
1509013566391,442
1509013566399,440
1509013566407,442
1509013566416,443
1509013566424,442
1509013566432,445
1509013566440,443
1509013566448,445
1509013566456,446
1509013566461,446
1509013566469,447
1509013566477,446
1509013566485,448
1509013566493,447
1509013566502,446
1509013566510,448
1509013566518,445
1509013566526,447
1509013566534,447
1509013566542,446
1509013566551,447
1509013566559,445
1509013566567,446
1509013566575,446
1509013566583,445
1509013566592,446
1509013566600,443
1509013566608,445
1509013566616,445
1509013566620,444
1509013566628,449
1509013566637,451
1509013566645,460
1509013566653,470
1509013566661,483
1509013566669,503
1509013566678,522
1509013566686,549
1509013566694,577
1509013566702,604
1509013566710,633
1509013566719,655
1509013566727,677
1509013566735,693
1509013566743,701
1509013566751,708
1509013566759,706
1509013566767,701
1509013566776,692
1509013566780,679
1509013566788,666
1509013566796,647
1509013566804,630
1509013566813,613
1509013566821,592
1509013566829,575
1509013566837,556
1509013566845,540
1509013566854,524
1509013566862,508
1509013566870,497
1509013566878,484
1509013566886,477
1509013566895,469
1509013566903,464
1509013566911,464
1509013566919,461
1509013566927,463
1509013566935,465
1509013566939,467
1509013566948,473
1509013566956,476
1509013566964,481
1509013566972,484
1509013566980,485
1509013566989,488
1509013566997,486
1509013567005,487
1509013567013,486
1509013567021,482
1509013567029,481
1509013567038,476
1509013567046,475
1509013567054,471
1509013567063,466
1509013567070,464
1509013567079,459
1509013567087,457
1509013567095,454
1509013567099,450
1509013567107,449
1509013567116,444
1509013567124,444
1509013567132,443
1509013567140,441
1509013567148,443
1509013567156,441
1509013567165,442
1509013567173,443
1509013567182,443
1509013567190,445
1509013567198,444
1509013567206,446
1509013567215,448
1509013567223,447
1509013567231,451
1509013567239,450
1509013567248,452
1509013567256,454
1509013567260,453
1509013567268,455
1509013567276,453
1509013567284,454
1509013567293,453
1509013567301,451
1509013567309,454
1509013567317,451
1509013567325,451
1509013567334,452
1509013567342,449
1509013567350,450
1509013567358,449
1509013567366,451
1509013567374,455
1509013567383,459
1509013567391,471
1509013567399,481
1509013567407,498
1509013567415,517
1509013567420,538
1509013567428,563
1509013567436,585
1509013567444,608
1509013567452,630
1509013567460,645
1509013567468,661
1509013567477,668
1509013567485,673
1509013567493,674
1509013567501,668
1509013567509,662
1509013567518,649
1509013567526,635
1509013567534,620
1509013567542,601
1509013567550,586
1509013567559,566
1509013567567,550
1509013567575,534
1509013567579,517
1509013567587,505
1509013567595,490
1509013567604,482
1509013567612,474
1509013567620,466
1509013567628,464
1509013567636,460
1509013567645,461
1509013567653,465
1509013567661,466
1509013567669,472
1509013567677,474
1509013567685,479
1509013567694,485
1509013567702,486
1509013567710,491
1509013567718,491
1509013567726,493
1509013567734,493
1509013567742,490
1509013567747,489
1509013567755,485
1509013567763,482
1509013567772,479
1509013567780,473
1509013567788,471
1509013567796,466
1509013567804,463
1509013567812,461
1509013567821,455
1509013567829,454
1509013567837,451
1509013567845,450
1509013567853,450
1509013567861,448
1509013567870,449
1509013567878,448
1509013567886,449
1509013567894,450
1509013567902,450
1509013567906,453
1509013567915,453
1509013567923,455
1509013567931,457
1509013567939,456
1509013567947,458
1509013567956,458
1509013567964,459
1509013567972,460
1509013567980,459
1509013567988,461
1509013567997,459
1509013568005,460
1509013568013,460
1509013568021,457
1509013568029,462
1509013568037,465
1509013568046,471
1509013568054,482
1509013568062,493
1509013568066,510
1509013568074,527
1509013568082,548
1509013568091,569
1509013568099,588
1509013568107,610
1509013568115,627
1509013568123,641
1509013568132,652
1509013568140,656
1509013568148,660
1509013568156,656
1509013568164,651
1509013568173,643
1509013568181,630
1509013568189,618
1509013568197,602
1509013568205,586
1509013568213,571
1509013568221,552
1509013568226,539
1509013568234,523
1509013568242,509
1509013568250,498
1509013568258,486
1509013568266,480
1509013568275,472
1509013568283,469
1509013568291,468
1509013568299,468
1509013568308,472
1509013568316,474
1509013568324,478
1509013568332,484
1509013568340,487
1509013568348,493
1509013568357,496
1509013568365,499
1509013568373,501
1509013568381,500
1509013568385,502
1509013568393,499
1509013568402,497
1509013568410,496
1509013568418,490
1509013568426,487
1509013568434,481
1509013568443,477
1509013568451,473
1509013568459,466
1509013568467,464
1509013568475,459
1509013568484,456
1509013568492,455
1509013568500,451
1509013568508,451
1509013568516,449
1509013568524,447
1509013568533,448
1509013568541,446
1509013568545,449
1509013568553,448
1509013568561,449
1509013568570,451
1509013568578,450
1509013568586,454
1509013568595,454
1509013568603,455
1509013568611,457
1509013568620,456
1509013568628,459
1509013568636,459
1509013568644,459
1509013568653,462
1509013568660,462
1509013568669,468
1509013568677,473
1509013568685,483
1509013568693,496
1509013568701,510
1509013568705,532
1509013568714,554
1509013568722,578
1509013568730,605
1509013568738,627
1509013568746,652
1509013568755,670
1509013568763,684
1509013568771,695
1509013568779,698
1509013568787,700
1509013568796,696
1509013568804,687
1509013568812,678
1509013568820,662
1509013568828,648
1509013568837,631
1509013568845,613
1509013568853,598
1509013568861,578
1509013568865,563
1509013568873,545
1509013568881,531
1509013568890,518
1509013568898,503
1509013568906,495
1509013568914,486
1509013568922,479
1509013568931,476
1509013568939,472
1509013568947,474
1509013568955,473
1509013568963,476
1509013568972,481
1509013568980,482
1509013568988,488
1509013568996,491
1509013569004,493
1509013569012,497
1509013569020,495
1509013569025,497
1509013569033,495
1509013569041,492
1509013569049,492
1509013569057,486
1509013569066,484
1509013569074,479
1509013569082,475
1509013569090,472
1509013569098,466
1509013569107,465
1509013569115,461
1509013569123,458
1509013569131,459
1509013569139,455
1509013569147,455
1509013569156,454
1509013569164,452
1509013569172,453
1509013569180,451
1509013569184,453
1509013569193,453
1509013569201,454
1509013569209,456
1509013569217,455
1509013569225,458
1509013569234,459
1509013569242,459
1509013569250,462
1509013569258,460
1509013569266,462
1509013569275,460
1509013569283,459
1509013569291,460
1509013569299,457
1509013569307,458
1509013569315,457
1509013569324,458
1509013569332,462
1509013569340,465
1509013569344,476
1509013569352,489
1509013569361,505
1509013569369,529
1509013569377,553
1509013569385,582
1509013569393,611
1509013569401,638
1509013569410,667
1509013569418,686
1509013569426,705
1509013569434,716
1509013569442,722
1509013569450,726
1509013569459,721
1509013569467,716
1509013569475,705
1509013569483,689
1509013569492,676
1509013569499,656
1509013569504,639
1509013569512,619
1509013569520,600
1509013569528,583
1509013569537,562
1509013569545,546
1509013569553,530
1509013569561,513
1509013569569,501
1509013569577,487
1509013569585,479
1509013569594,471
1509013569602,465
1509013569610,465
1509013569618,462
1509013569626,465
1509013569635,468
1509013569643,471
1509013569651,476
1509013569659,477
1509013569663,482
1509013569672,484
1509013569680,485
1509013569688,488
1509013569696,486
1509013569704,487
1509013569713,485
1509013569721,482
1509013569729,480
1509013569737,475
1509013569745,473
1509013569753,469
1509013569762,465
1509013569770,463
1509013569778,458
1509013569786,457
1509013569794,455
1509013569802,452
1509013569811,452
1509013569819,449
1509013569823,451
1509013569831,449
1509013569839,448
1509013569848,450
1509013569856,448
1509013569864,451
1509013569872,451
1509013569880,450
1509013569888,453
1509013569897,453
1509013569905,457
1509013569913,456
1509013569921,456
1509013569929,458
1509013569938,456
1509013569946,459
1509013569954,459
1509013569962,458
1509013569970,460
1509013569978,457
1509013569983,458
1509013569991,456
1509013569999,454
1509013570007,455
1509013570015,451
1509013570024,454
1509013570032,455
1509013570040,459
1509013570048,468
1509013570056,476
1509013570065,493
1509013570073,513
1509013570081,534
1509013570089,563
1509013570098,590
1509013570106,619
1509013570115,645
1509013570123,668
1509013570131,688
1509013570139,701
1509013570147,712
1509013570151,716
1509013570160,713
1509013570168,710
1509013570176,699
1509013570184,687
1509013570192,672
1509013570201,655
1509013570209,638
1509013570217,618
1509013570225,601
1509013570233,582
1509013570241,563
1509013570250,547
1509013570258,528
1509013570266,512
1509013570274,498
1509013570282,485
1509013570291,476
1509013570299,466
1509013570307,462
1509013570311,460
1509013570319,458
1509013570328,460
1509013570336,459
1509013570344,464
1509013570352,467
1509013570360,470
1509013570368,476
1509013570376,477
1509013570385,482
1509013570393,483
1509013570401,482
1509013570409,484
1509013570417,481
1509013570426,481
1509013570434,478
1509013570442,474
1509013570450,474
1509013570458,468
1509013570466,465
1509013570471,463
1509013570479,458
1509013570487,458
1509013570495,453
1509013570503,452
1509013570512,451
1509013570520,448
1509013570528,449
1509013570536,447
1509013570544,447
1509013570552,448
1509013570561,446
1509013570569,450
1509013570577,449
1509013570585,451
1509013570593,453
1509013570601,452
1509013570610,456
1509013570618,454
1509013570626,457
1509013570630,457
1509013570638,456
1509013570647,459
1509013570655,457
1509013570663,457
1509013570671,457
1509013570679,454
1509013570688,455
1509013570696,454
1509013570704,454
1509013570712,453
1509013570720,451
1509013570728,452
1509013570737,448
1509013570745,450
1509013570753,450
1509013570761,451
1509013570769,458
1509013570777,464
1509013570786,475
1509013570790,490
1509013570798,506
1509013570806,528
1509013570814,549
1509013570823,574
1509013570831,598
1509013570839,619
1509013570847,639
1509013570855,652
1509013570864,664
1509013570872,670
1509013570880,669
1509013570888,667
1509013570896,658
1509013570904,648
1509013570913,635
1509013570921,620
1509013570929,606
1509013570937,588
1509013570945,572
1509013570950,556
1509013570958,537
1509013570966,524
1509013570974,508
1509013570982,496
1509013570990,485
1509013570999,474
1509013571007,468
1509013571015,462
1509013571023,460
1509013571031,461
1509013571039,460
1509013571048,464
1509013571056,466
1509013571064,471
1509013571072,476
1509013571080,478
1509013571089,483
1509013571097,485
1509013571105,487
1509013571109,489
1509013571117,487
1509013571125,488
1509013571134,484
1509013571142,482
1509013571150,481
1509013571158,475
1509013571166,475
1509013571175,469
1509013571183,466
1509013571191,463
1509013571199,458
1509013571207,457
1509013571216,453
1509013571224,451
1509013571232,451
1509013571240,447
1509013571248,449
1509013571256,448
1509013571265,448
1509013571269,449
1509013571277,448
1509013571285,451
1509013571294,450
1509013571301,451
1509013571310,453
1509013571318,452
1509013571326,454
1509013571334,453
1509013571343,455
1509013571351,456
1509013571359,454
1509013571367,457
1509013571375,454
1509013571383,454
1509013571392,455
1509013571400,453
1509013571408,455
1509013571416,453
1509013571424,454
1509013571428,456
1509013571437,456
1509013571445,463
1509013571453,467
1509013571461,476
1509013571469,490
1509013571478,502
1509013571486,521
1509013571494,538
1509013571502,558
1509013571511,577
1509013571520,593
1509013571528,609
1509013571536,618
1509013571544,625
1509013571552,629
1509013571561,626
1509013571569,624
1509013571577,616
1509013571585,608
1509013571589,598
1509013571597,586
1509013571605,574
1509013571614,560
1509013571622,547
1509013571630,534
1509013571638,519
1509013571646,508
1509013571655,496
1509013571663,486
1509013571671,480
1509013571679,471
1509013571687,468
1509013571696,463
1509013571704,463
1509013571712,463
1509013571720,464
1509013571728,468
1509013571737,469
1509013571744,473
1509013571749,478
1509013571757,478
1509013571765,483
1509013571774,484
1509013571781,485
1509013571789,486
1509013571798,482
1509013571806,483
1509013571814,479
1509013571822,477
1509013571830,475
1509013571839,471
1509013571847,469
1509013571855,465
1509013571863,463
1509013571872,461
1509013571880,457
1509013571888,456
1509013571896,453
1509013571904,451
1509013571908,450
1509013571916,448
1509013571925,450
1509013571933,448
1509013571941,449
1509013571949,450
1509013571957,447
1509013571965,450
1509013571974,449
1509013571982,449
1509013571990,451
1509013571998,450
1509013572006,453
1509013572015,453
1509013572023,454
1509013572031,456
1509013572039,454
1509013572047,456
1509013572056,455
1509013572064,456
1509013572068,457
1509013572076,454
1509013572084,455
1509013572093,453
1509013572101,453
1509013572109,454
1509013572117,453
1509013572125,457
1509013572133,459
1509013572142,465
1509013572150,475
1509013572158,483
1509013572166,499
1509013572174,514
1509013572182,531
1509013572191,551
1509013572199,568
1509013572207,587
1509013572215,601
1509013572223,613
1509013572231,623
1509013572236,627
1509013572244,631
1509013572252,629
1509013572260,624
1509013572268,619
1509013572277,608
1509013572285,601
1509013572293,589
1509013572301,578
1509013572309,567
1509013572318,553
1509013572326,543
1509013572334,530
1509013572342,518
1509013572350,509
1509013572359,497
1509013572367,492
1509013572375,485
1509013572383,479
1509013572391,477
1509013572395,473
1509013572403,473
1509013572412,473
1509013572420,475
1509013572428,478
1509013572436,478
1509013572445,483
1509013572453,484
1509013572461,485
1509013572469,489
1509013572477,487
1509013572486,489
1509013572494,488
1509013572502,486
1509013572510,486
1509013572518,482
1509013572526,482
1509013572534,478
1509013572543,474
1509013572551,472
1509013572555,467
1509013572563,466
1509013572571,462
1509013572579,460
1509013572588,460
1509013572596,456
1509013572604,457
1509013572612,456
1509013572620,456
1509013572628,458
1509013572637,455
1509013572645,456
1509013572653,454
1509013572661,455
1509013572670,457
1509013572678,455
1509013572686,457
1509013572694,457
1509013572702,457
1509013572710,458
1509013572715,457
1509013572723,460
1509013572731,458
1509013572739,458
1509013572747,459
1509013572755,457
1509013572764,459
1509013572772,457
1509013572780,456
1509013572788,457
1509013572796,455
1509013572805,456
1509013572813,455
1509013572821,455
1509013572829,458
1509013572837,457
1509013572846,464
1509013572854,468
1509013572862,477
1509013572870,491
1509013572874,503
1509013572882,521
1509013572891,538
1509013572899,556
1509013572908,574
1509013572916,588
1509013572924,605
1509013572932,614
1509013572941,621
1509013572949,627
1509013572957,626
1509013572965,626
1509013572974,620
1509013572981,612
1509013572990,606
1509013572998,594
1509013573006,587
1509013573014,576
1509013573022,564
1509013573030,556
1509013573035,545
1509013573043,536
1509013573051,526
1509013573059,516
1509013573068,509
1509013573076,499
1509013573084,495
1509013573092,488
1509013573100,483
1509013573108,483
1509013573117,479
1509013573125,481
1509013573133,481
1509013573141,482
1509013573149,486
1509013573158,486
1509013573166,488
1509013573174,489
1509013573182,489
1509013573190,492
1509013573195,489
1509013573203,491
1509013573211,489
1509013573219,486
1509013573227,486
1509013573235,480
1509013573243,479
1509013573252,476
1509013573260,473
1509013573268,472
1509013573276,467
1509013573284,467
1509013573293,464
1509013573301,461
1509013573309,462
1509013573317,459
1509013573325,459
1509013573334,459
1509013573342,457
1509013573350,459
1509013573354,457
1509013573362,458
1509013573370,457
1509013573379,457
1509013573387,459
1509013573395,457
1509013573403,459
1509013573411,458
1509013573419,457
1509013573428,459
1509013573436,456
1509013573444,458
1509013573452,457
1509013573460,457
1509013573469,459
1509013573477,457
1509013573485,459
1509013573493,458
1509013573501,457
1509013573509,459
1509013573514,457
1509013573522,458
1509013573530,458
1509013573538,457
1509013573546,459
1509013573555,456
1509013573563,458
1509013573571,457
1509013573579,455
1509013573587,456
1509013573595,453
1509013573604,456
1509013573612,458
1509013573620,461
1509013573628,470
1509013573636,477
1509013573645,490
1509013573653,504
1509013573661,519
1509013573669,539
1509013573674,556
1509013573681,576
1509013573690,592
1509013573698,606
1509013573706,619
1509013573714,625
1509013573722,632
1509013573731,634
1509013573739,631
1509013573747,628
1509013573755,620
1509013573763,613
1509013573772,604
1509013573780,593
1509013573788,585
1509013573796,574
1509013573804,563
1509013573812,552
1509013573821,541
1509013573829,532
1509013573833,520
1509013573841,513
1509013573849,506
1509013573857,498
1509013573866,494
1509013573874,488
1509013573882,488
1509013573890,485
1509013573898,484
1509013573907,486
1509013573915,485
1509013573923,489
1509013573931,490
1509013573939,490
1509013573947,494
1509013573956,492
1509013573964,494
1509013573972,493
1509013573980,492
1509013573988,494
1509013573993,491
1509013574001,490
1509013574009,488
1509013574017,486
1509013574025,488
1509013574034,486
1509013574042,484
1509013574050,480
1509013574058,473
1509013574066,472
1509013574074,465
1509013574083,464
1509013574091,461
1509013574099,458
1509013574107,460
1509013574115,457
1509013574123,458
1509013574132,459
1509013574140,458
1509013574148,460
1509013574152,459
1509013574160,461
1509013574169,462
1509013574177,461
1509013574185,464
1509013574193,462
1509013574201,464
1509013574209,465
1509013574218,463
1509013574226,465
1509013574234,463
1509013574242,464
1509013574250,464
1509013574259,462
1509013574267,464
1509013574275,461
1509013574283,462
1509013574291,461
1509013574299,459
1509013574308,462
1509013574312,460
1509013574321,460
1509013574329,459
1509013574337,457
1509013574345,458
1509013574354,455
1509013574362,457
1509013574370,457
1509013574378,456
1509013574386,459
1509013574395,460
1509013574403,466
1509013574411,476
1509013574419,483
1509013574427,496
1509013574436,507
1509013574444,522
1509013574452,539
1509013574460,555
1509013574468,573
1509013574476,587
1509013574480,601
1509013574489,610
1509013574497,615
1509013574505,621
1509013574513,619
1509013574521,617
1509013574530,613
1509013574538,605
1509013574546,597
1509013574554,585
1509013574562,575
1509013574571,564
1509013574579,552
1509013574587,542
1509013574595,529
1509013574603,521
1509013574612,512
1509013574620,502
1509013574628,498
1509013574636,490
1509013574640,486
1509013574648,484
1509013574657,481
1509013574665,483
1509013574673,482
1509013574681,486
1509013574689,488
1509013574697,490
1509013574706,495
1509013574714,495
1509013574722,499
1509013574730,501
1509013574738,501
1509013574747,503
1509013574755,501
1509013574763,502
1509013574771,500
1509013574779,497
1509013574787,497
1509013574795,490
1509013574800,488
1509013574808,485
1509013574816,480
1509013574824,478
1509013574833,474
1509013574841,472
1509013574849,470
1509013574857,467
1509013574865,467
1509013574874,465
1509013574882,465
1509013574890,464
1509013574898,462
1509013574906,464
1509013574914,463
1509013574923,463
1509013574931,465
1509013574939,464
1509013574947,466
1509013574955,465
1509013574959,467
1509013574968,468
1509013574976,467
1509013574984,469
1509013574992,467
1509013575000,468
1509013575009,469
1509013575017,467
1509013575025,469
1509013575033,466
1509013575041,466
1509013575049,466
1509013575058,464
1509013575066,465
1509013575074,463
1509013575082,465
1509013575090,468
1509013575099,470
1509013575107,479
1509013575115,485
1509013575119,496
1509013575127,510
1509013575135,522
1509013575144,539
1509013575152,552
1509013575160,568
1509013575168,582
1509013575176,592
1509013575184,603
1509013575193,607
1509013575201,610
1509013575209,610
1509013575217,605
1509013575225,602
1509013575234,594
1509013575242,586
1509013575250,576
1509013575258,563
1509013575266,554
1509013575274,540
1509013575279,530
1509013575287,520
1509013575295,507
1509013575303,501
1509013575311,492
1509013575320,486
1509013575328,483
1509013575336,478
1509013575344,479
1509013575352,477
1509013575361,479
1509013575369,481
1509013575377,483
1509013575385,488
1509013575393,490
1509013575401,493
1509013575410,498
1509013575418,497
1509013575426,501
1509013575434,500
1509013575438,502
1509013575446,501
1509013575455,499
1509013575463,498
1509013575471,493
1509013575479,491
1509013575487,488
1509013575496,483
1509013575504,482
1509013575512,476
1509013575520,473
1509013575528,471
1509013575537,466
1509013575545,466
1509013575553,463
1509013575561,463
1509013575569,462
1509013575578,460
1509013575585,462
1509013575594,459
1509013575598,460
1509013575606,462
1509013575614,461
1509013575622,464
1509013575631,464
1509013575639,465
1509013575647,466
1509013575655,466
1509013575663,468
1509013575672,466
1509013575680,468
1509013575688,468
1509013575696,465
1509013575704,467
1509013575712,465
1509013575721,465
1509013575730,466
1509013575738,465
1509013575746,470
1509013575754,473
1509013575758,480
1509013575767,490
1509013575775,499
1509013575783,514
1509013575791,528
1509013575799,545
1509013575807,563
1509013575816,577
1509013575824,593
1509013575832,604
1509013575840,614
1509013575848,622
1509013575857,623
1509013575865,625
1509013575873,621
1509013575881,617
1509013575889,610
1509013575898,600
1509013575906,593
1509013575914,581
1509013575918,569
1509013575926,559
1509013575934,546
1509013575943,536
1509013575951,525
1509013575959,515
1509013575967,507
1509013575975,498
1509013575984,495
1509013575992,488
1509013576000,485
1509013576008,485
1509013576016,482
1509013576025,485
1509013576033,486
1509013576041,489
1509013576049,493
1509013576057,494
1509013576065,499
1509013576073,500
1509013576078,502
1509013576086,504
1509013576094,502
1509013576102,504
1509013576110,501
1509013576119,499
1509013576127,498
1509013576135,492
1509013576143,491
1509013576151,485
1509013576159,483
1509013576168,480
1509013576176,474
1509013576184,473
1509013576192,469
1509013576200,466
1509013576209,465
1509013576217,462
1509013576225,463
1509013576233,462
1509013576238,462
1509013576246,463
1509013576254,462
1509013576262,464
1509013576270,462
1509013576278,464
1509013576286,466
1509013576295,464
1509013576303,466
1509013576311,467
1509013576319,468
1509013576327,469
1509013576335,469
1509013576344,470
1509013576352,468
1509013576360,468
1509013576368,469
1509013576376,466
1509013576385,469
1509013576393,469
1509013576397,472
1509013576405,479
1509013576413,485
1509013576422,498
1509013576430,510
1509013576438,526
1509013576446,545
1509013576454,563
1509013576462,584
1509013576471,600
1509013576479,617
1509013576487,631
1509013576495,640
1509013576503,652
1509013576512,653
1509013576520,649
1509013576528,645
1509013576536,636
1509013576544,629
1509013576552,618
1509013576560,607
1509013576565,596
1509013576573,582
1509013576581,573
1509013576589,559
1509013576597,547
1509013576606,538
1509013576614,525
1509013576622,518
1509013576630,509
1509013576638,502
1509013576646,497
1509013576655,492
1509013576663,492
1509013576671,489
1509013576679,490
1509013576687,492
1509013576696,491
1509013576704,495
1509013576712,497
1509013576720,502
1509013576724,504
1509013576733,503
1509013576741,505
1509013576749,504
1509013576757,502
1509013576765,502
1509013576774,498
1509013576782,496
1509013576790,492
1509013576798,490
1509013576806,488
1509013576814,482
1509013576823,480
1509013576831,476
1509013576839,473
1509013576847,472
1509013576855,467
1509013576863,467
1509013576872,464
1509013576880,463
1509013576884,463
1509013576892,461
1509013576900,463
1509013576908,462
1509013576917,462
1509013576925,464
1509013576933,461
1509013576941,464
1509013576949,464
1509013576958,464
1509013576966,466
1509013576974,465
1509013576982,467
1509013576990,466
1509013576999,467
1509013577007,467
1509013577015,466
1509013577023,468
1509013577031,467
1509013577039,469
1509013577044,473
1509013577052,474
1509013577060,482
1509013577068,492
1509013577076,502
1509013577085,518
1509013577093,535
1509013577101,557
1509013577109,576
1509013577117,597
1509013577126,618
1509013577135,633
1509013577143,649
1509013577151,658
1509013577159,664
1509013577167,667
1509013577176,664
1509013577184,661
1509013577192,654
1509013577200,644
1509013577204,635
1509013577213,620
1509013577221,609
1509013577229,595
1509013577237,580
1509013577245,569
1509013577254,553
1509013577261,542
1509013577270,531
1509013577278,519
1509013577286,511
1509013577294,501
1509013577303,497
1509013577311,492
1509013577319,490
1509013577327,490
1509013577335,487
1509013577343,491
1509013577352,491
1509013577360,493
1509013577364,496
1509013577372,497
1509013577380,500
1509013577389,501
1509013577397,502
1509013577405,503
1509013577413,500
1509013577421,501
1509013577429,498
1509013577437,495
1509013577446,495
1509013577454,489
1509013577462,486
1509013577470,482
1509013577478,477
1509013577487,475
1509013577495,469
1509013577503,468
1509013577511,464
1509013577519,462
1509013577523,464
1509013577532,460
1509013577540,461
1509013577548,459
1509013577556,458
1509013577564,460
1509013577573,458
1509013577581,461
1509013577589,461
1509013577597,461
1509013577606,464
1509013577614,463
1509013577622,465
1509013577630,465
1509013577638,464
1509013577646,467
1509013577655,465
1509013577663,466
1509013577671,465
1509013577679,464
1509013577683,466
1509013577691,463
1509013577699,464
1509013577708,463
1509013577716,465
1509013577724,471
1509013577733,474
1509013577740,485
1509013577749,497
1509013577757,512
1509013577765,532
1509013577773,550
1509013577781,573
1509013577789,594
1509013577798,614
1509013577806,633
1509013577814,645
1509013577822,658
1509013577830,665
1509013577839,666
1509013577843,667
1509013577851,661
1509013577859,655
1509013577867,645
1509013577875,633
1509013577884,621
1509013577892,605
1509013577900,593
1509013577908,577
1509013577916,561
1509013577925,550
1509013577933,534
1509013577941,524
1509013577949,512
1509013577957,501
1509013577965,496
1509013577974,488
1509013577982,486
1509013577990,483
1509013577998,483
1509013578002,486
1509013578010,486
1509013578019,491
1509013578027,495
1509013578035,497
1509013578043,502
1509013578052,502
1509013578060,505
1509013578068,506
1509013578076,506
1509013578084,507
1509013578093,503
1509013578101,503
1509013578109,498
1509013578117,494
1509013578125,493
1509013578133,486
1509013578142,483
1509013578150,479
1509013578158,474
1509013578162,472
1509013578170,468
1509013578178,467
1509013578186,464
1509013578195,462
1509013578203,463
1509013578211,461
1509013578219,462
1509013578227,463
1509013578236,463
1509013578244,466
1509013578252,464
1509013578260,466
1509013578268,466
1509013578277,467
1509013578285,469
1509013578293,467
1509013578301,470
1509013578309,468
1509013578317,468
1509013578322,471
1509013578330,469
1509013578338,469
1509013578346,469
1509013578354,468
1509013578363,470
1509013578371,472
1509013578379,477
1509013578387,485
1509013578395,494
1509013578403,510
1509013578412,524
1509013578420,543
1509013578428,563
1509013578436,582
1509013578444,603
1509013578453,619
1509013578461,634
1509013578469,645
1509013578477,651
1509013578481,655
1509013578490,653
1509013578498,650
1509013578506,642
1509013578514,631
1509013578522,620
1509013578530,604
1509013578539,590
1509013578548,574
1509013578556,558
1509013578564,544
1509013578572,528
1509013578580,515
1509013578589,503
1509013578597,491
1509013578605,484
1509013578613,476
1509013578621,474
1509013578630,472
1509013578638,472
1509013578646,476
1509013578650,477
1509013578658,483
1509013578666,488
1509013578675,492
1509013578683,497
1509013578691,499
1509013578699,503
1509013578707,505
1509013578716,504
1509013578724,506
1509013578732,503
1509013578740,501
1509013578748,499
1509013578756,494
1509013578765,492
1509013578773,486
1509013578781,483
1509013578789,479
1509013578797,474
1509013578805,472
1509013578810,466
1509013578818,465
1509013578826,462
1509013578834,460
1509013578842,461
1509013578851,458
1509013578859,458
1509013578867,459
1509013578875,458
1509013578883,460
1509013578892,459
1509013578900,461
1509013578908,462
1509013578916,462
1509013578924,465
1509013578933,463
1509013578941,465
1509013578949,466
1509013578957,464
1509013578965,466
1509013578969,464
1509013578978,465
1509013578986,466
1509013578994,467
1509013579002,472
1509013579010,475
1509013579018,485
1509013579026,497
1509013579035,511
1509013579043,530
1509013579051,549
1509013579059,571
1509013579067,593
1509013579076,612
1509013579084,630
1509013579092,643
1509013579100,654
1509013579108,661
1509013579117,662
1509013579125,662
1509013579129,654
1509013579137,647
1509013579145,635
1509013579154,621
1509013579162,608
1509013579170,590
1509013579178,576
1509013579186,559
1509013579194,543
1509013579202,529
1509013579211,513
1509013579219,501
1509013579227,491
1509013579235,481
1509013579244,476
1509013579252,469
1509013579260,469
1509013579268,469
1509013579276,470
1509013579284,474
1509013579289,476
1509013579297,481
1509013579305,485
1509013579313,489
1509013579321,494
1509013579330,494
1509013579338,497
1509013579346,498
1509013579354,497
1509013579362,498
1509013579371,495
1509013579379,493
1509013579387,490
1509013579395,485
1509013579403,483
1509013579411,479
1509013579420,475
1509013579428,471
1509013579436,465
1509013579444,466
1509013579448,460
1509013579456,459
1509013579465,457
1509013579473,455
1509013579481,456
1509013579489,454
1509013579497,455
1509013579506,456
1509013579514,456
1509013579522,459
1509013579530,458
1509013579538,460
1509013579546,461
1509013579555,460
1509013579563,462
1509013579571,462
1509013579579,463
1509013579587,464
1509013579596,463
1509013579604,464
1509013579608,461
1509013579616,462
1509013579624,463
1509013579632,462
1509013579641,465
1509013579649,466
1509013579657,473
1509013579665,482
1509013579673,493
1509013579682,511
1509013579690,528
1509013579698,552
1509013579706,576
1509013579714,598
1509013579723,623
1509013579731,642
1509013579739,660
1509013579747,674
1509013579755,681
1509013579763,686
1509013579767,684
1509013579776,679
1509013579784,672
1509013579792,659
1509013579800,649
1509013579808,632
1509013579817,617
1509013579825,601
1509013579833,583
1509013579841,569
1509013579849,552
1509013579858,538
1509013579866,524
1509013579874,510
1509013579882,501
1509013579890,490
1509013579898,483
1509013579907,477
1509013579915,472
1509013579923,473
1509013579927,471
1509013579935,473
1509013579944,477
1509013579953,479
1509013579961,484
1509013579969,486
1509013579977,489
1509013579986,492
1509013579994,492
1509013580002,495
1509013580010,493
1509013580018,493
1509013580026,491
1509013580035,487
1509013580043,486
1509013580051,481
1509013580059,478
1509013580067,475
1509013580075,470
1509013580083,467
1509013580088,462
1509013580096,461
1509013580104,459
1509013580112,455
1509013580120,456
1509013580129,453
1509013580137,454
1509013580145,454
1509013580153,452
1509013580161,454
1509013580170,452
1509013580178,454
1509013580186,454
1509013580194,453
1509013580202,456
1509013580210,455
1509013580219,456
1509013580227,458
1509013580235,456
1509013580243,459
1509013580247,457
1509013580256,457
1509013580264,457
1509013580272,456
1509013580280,458
1509013580288,456
1509013580296,459
1509013580305,461
1509013580313,463
1509013580321,471
1509013580329,478
1509013580337,491
1509013580346,508
1509013580354,525
1509013580362,549
1509013580370,573
1509013580378,598
1509013580386,622
1509013580395,641
1509013580403,661
1509013580407,672
1509013580415,681
1509013580423,686
1509013580432,685
1509013580440,683
1509013580448,673
1509013580456,663
1509013580464,651
1509013580472,636
1509013580481,622
1509013580489,604
1509013580497,588
1509013580505,573
1509013580513,555
1509013580522,541
1509013580530,526
1509013580538,513
1509013580546,502
1509013580554,491
1509013580562,484
1509013580566,476
1509013580575,473
1509013580583,471
1509013580591,468
1509013580599,471
1509013580607,471
1509013580616,474
1509013580624,478
1509013580632,481
1509013580640,485
1509013580648,487
1509013580657,489
1509013580665,491
1509013580673,488
1509013580681,490
1509013580689,487
1509013580698,485
1509013580706,483
1509013580714,478
1509013580722,476
1509013580726,470
1509013580734,467
1509013580743,465
1509013580751,459
1509013580759,458
1509013580767,453
1509013580775,452
1509013580783,451
1509013580792,448
1509013580800,449
1509013580808,449
1509013580816,448
1509013580824,448
1509013580833,447
1509013580841,449
1509013580849,448
1509013580857,450
1509013580865,451
1509013580874,450
1509013580881,453
1509013580886,453
1509013580894,454
1509013580902,456
1509013580910,454
1509013580918,457
1509013580927,456
1509013580935,456
1509013580943,458
1509013580952,456
1509013580959,457
1509013580968,455
1509013580976,455
1509013580984,456
1509013580992,454
1509013581000,456
1509013581008,458
1509013581017,464
1509013581025,474
1509013581033,485
1509013581041,504
1509013581045,522
1509013581054,547
1509013581062,573
1509013581070,596
1509013581078,622
1509013581086,643
1509013581095,660
1509013581103,675
1509013581111,682
1509013581119,686
1509013581127,683
1509013581135,679
1509013581144,671
1509013581152,657
1509013581160,646
1509013581168,629
1509013581176,612
1509013581185,596
1509013581193,577
1509013581201,561
1509013581205,544
1509013581213,529
1509013581221,515
1509013581229,501
1509013581238,491
1509013581246,480
1509013581254,472
1509013581262,468
1509013581270,463
1509013581279,464
1509013581287,465
1509013581295,466
