time,value
1509013094173,519
1509013094181,497
1509013094189,483
1509013094197,476
1509013094201,475
1509013094210,472
1509013094218,472
1509013094226,471
1509013094234,471
1509013094242,474
1509013094250,473
1509013094259,474
1509013094267,476
1509013094275,476
1509013094283,480
1509013094291,479
1509013094299,482
1509013094307,483
1509013094316,484
1509013094324,487
1509013094332,487
1509013094341,489
1509013094349,488
1509013094357,489
1509013094361,490
1509013094369,488
1509013094377,490
1509013094386,488
1509013094394,488
1509013094402,490
1509013094410,487
1509013094418,489
1509013094426,488
1509013094434,488
1509013094443,490
1509013094451,489
1509013094459,490
1509013094467,491
1509013094475,493
1509013094484,498
1509013094492,502
1509013094500,511
1509013094508,520
1509013094516,530
1509013094520,543
1509013094529,551
1509013094537,561
1509013094545,569
1509013094553,575
1509013094561,581
1509013094570,581
1509013094578,583
1509013094586,580
1509013094594,576
1509013094602,573
1509013094610,565
1509013094619,560
1509013094627,553
1509013094635,545
1509013094644,539
1509013094652,529
1509013094660,524
1509013094668,516
1509013094676,508
1509013094680,504
1509013094688,497
1509013094697,494
1509013094705,491
1509013094713,488
1509013094722,489
1509013094730,488
1509013094738,490
1509013094746,492
1509013094755,494
1509013094763,499
1509013094771,500
1509013094779,505
1509013094787,509
1509013094795,509
1509013094803,513
1509013094812,512
1509013094820,513
1509013094828,513
1509013094836,511
1509013094840,512
1509013094848,508
1509013094857,508
1509013094865,504
1509013094873,500
1509013094881,500
1509013094889,496
1509013094897,495
1509013094906,493
1509013094914,490
1509013094922,490
1509013094930,487
1509013094938,488
1509013094947,487
1509013094955,486
1509013094963,487
1509013094971,485
1509013094979,488
1509013094987,488
1509013094996,488
1509013095000,491
1509013095008,490
1509013095016,491
1509013095024,492
1509013095033,490
1509013095041,492
1509013095049,490
1509013095057,492
1509013095065,492
1509013095073,492
1509013095081,496
1509013095090,496
1509013095098,502
1509013095106,508
1509013095114,514
1509013095122,525
1509013095131,534
1509013095139,546
1509013095147,557
1509013095155,568
1509013095159,579
1509013095167,586
1509013095175,593
1509013095184,598
1509013095192,599
1509013095200,601
1509013095208,597
1509013095217,594
1509013095225,590
1509013095233,582
1509013095241,577
1509013095249,568
1509013095257,562
1509013095266,555
1509013095274,546
1509013095282,542
1509013095290,533
1509013095298,529
1509013095307,525
1509013095315,518
1509013095319,514
1509013095327,509
1509013095335,507
1509013095343,505
1509013095352,502
1509013095360,504
1509013095368,503
1509013095376,505
1509013095384,508
1509013095393,508
1509013095401,512
1509013095409,513
1509013095417,517
1509013095425,517
1509013095433,516
1509013095442,519
1509013095450,517
1509013095458,518
1509013095466,518
1509013095474,515
1509013095478,514
1509013095487,510
1509013095495,508
1509013095504,507
1509013095512,502
1509013095520,502
1509013095528,497
1509013095537,497
1509013095545,496
1509013095553,492
1509013095561,493
1509013095569,491
1509013095578,491
1509013095586,492
1509013095594,490
1509013095602,491
1509013095611,490
1509013095619,492
1509013095626,493
1509013095634,492
1509013095639,495
1509013095646,494
1509013095655,494
1509013095663,495
1509013095671,493
1509013095679,495
1509013095687,493
1509013095695,492
1509013095705,493
1509013095713,491
1509013095721,494
1509013095729,494
1509013095738,497
1509013095746,503
1509013095754,508
1509013095762,518
1509013095770,527
1509013095778,538
1509013095787,551
1509013095794,562
1509013095803,575
1509013095807,584
1509013095815,594
1509013095823,603
1509013095832,606
1509013095840,611
1509013095848,611
1509013095856,609
1509013095864,607
1509013095873,600
1509013095881,596
1509013095889,588
1509013095897,582
1509013095905,575
1509013095913,566
1509013095922,560
1509013095930,552
1509013095938,545
1509013095946,539
1509013095954,530
1509013095962,525
1509013095966,518
1509013095975,512
1509013095983,509
1509013095991,504
1509013095999,505
1509013096008,503
1509013096016,503
1509013096024,505
1509013096032,504
1509013096041,508
1509013096049,509
1509013096057,511
1509013096065,514
1509013096073,515
1509013096081,517
1509013096090,517
1509013096097,516
1509013096106,517
1509013096114,515
1509013096122,516
1509013096126,513
1509013096134,511
1509013096143,510
1509013096151,505
1509013096159,504
1509013096167,501
1509013096175,498
1509013096183,498
1509013096192,494
1509013096200,494
1509013096208,492
1509013096216,490
1509013096224,491
1509013096233,488
1509013096241,490
1509013096249,489
1509013096257,489
1509013096265,491
1509013096273,490
1509013096282,493
1509013096286,492
1509013096294,493
1509013096302,494
1509013096310,491
1509013096318,494
1509013096327,492
1509013096335,491
1509013096343,493
1509013096352,489
1509013096360,490
1509013096368,489
1509013096376,488
1509013096384,488
1509013096392,486
1509013096400,487
1509013096408,487
1509013096417,487
1509013096425,491
1509013096433,492
1509013096441,500
1509013096445,507
1509013096453,517
1509013096462,530
1509013096470,542
1509013096478,557
1509013096486,569
1509013096494,581
1509013096502,592
1509013096511,599
1509013096519,606
1509013096528,609
1509013096536,610
1509013096544,611
1509013096552,606
1509013096560,603
1509013096568,597
1509013096576,590
1509013096585,584
1509013096593,575
1509013096601,568
1509013096605,560
1509013096613,551
1509013096621,546
1509013096630,536
1509013096638,531
1509013096646,525
1509013096654,518
1509013096662,515
1509013096671,508
1509013096679,507
1509013096687,504
1509013096696,503
1509013096703,505
1509013096712,504
1509013096720,507
1509013096728,509
1509013096736,510
1509013096744,514
1509013096752,514
1509013096760,516
1509013096765,517
1509013096773,516
1509013096782,518
1509013096790,516
1509013096798,515
1509013096806,513
1509013096814,511
1509013096822,511
1509013096831,506
1509013096839,504
1509013096847,502
1509013096855,498
1509013096863,498
1509013096872,494
1509013096880,494
1509013096888,493
1509013096897,491
1509013096904,493
1509013096912,490
1509013096920,490
1509013096924,489
1509013096933,488
1509013096941,490
1509013096950,488
1509013096957,490
1509013096965,490
1509013096974,489
1509013096982,491
1509013096990,490
1509013096998,491
1509013097006,490
1509013097015,489
1509013097023,491
1509013097031,490
1509013097039,491
1509013097047,492
1509013097056,491
1509013097064,492
1509013097073,489
1509013097080,490
1509013097084,488
1509013097092,486
1509013097101,487
1509013097109,484
1509013097117,485
1509013097126,484
1509013097134,482
1509013097142,485
1509013097151,484
1509013097159,488
1509013097167,493
1509013097175,500
1509013097183,510
1509013097192,519
1509013097200,532
1509013097208,546
1509013097216,559
1509013097224,574
1509013097232,582
1509013097240,593
1509013097244,601
1509013097253,604
1509013097261,608
1509013097269,606
1509013097277,605
1509013097285,601
1509013097294,594
1509013097302,589
1509013097310,579
1509013097318,573
1509013097326,564
1509013097334,554
1509013097342,548
1509013097351,538
1509013097359,532
1509013097367,526
1509013097375,518
1509013097383,514
1509013097392,509
1509013097400,506
1509013097404,503
1509013097412,499
1509013097420,500
1509013097428,498
1509013097437,501
1509013097445,502
1509013097453,503
1509013097461,507
1509013097469,508
1509013097478,511
1509013097486,512
1509013097494,513
1509013097502,515
1509013097510,513
1509013097519,514
1509013097527,513
1509013097535,510
1509013097543,510
1509013097551,506
1509013097559,503
1509013097563,502
1509013097572,498
1509013097580,497
1509013097588,493
1509013097596,492
1509013097604,491
1509013097613,488
1509013097621,489
1509013097630,487
1509013097637,487
1509013097645,487
1509013097654,485
1509013097662,487
1509013097670,485
1509013097678,486
1509013097686,486
1509013097695,485
1509013097703,488
1509013097711,486
1509013097719,487
1509013097723,488
1509013097731,486
1509013097740,489
1509013097748,487
1509013097756,486
1509013097764,487
1509013097772,485
1509013097780,486
1509013097788,485
1509013097796,484
1509013097805,485
1509013097813,483
1509013097821,484
1509013097829,482
1509013097837,482
1509013097846,483
1509013097855,480
1509013097863,481
1509013097871,480
1509013097879,479
1509013097883,479
1509013097892,477
1509013097900,478
1509013097908,476
1509013097916,477
1509013097924,479
1509013097933,478
1509013097940,482
1509013097949,484
1509013097957,491
1509013097965,500
1509013097973,509
1509013097982,523
1509013097990,535
1509013097998,550
1509013098006,564
1509013098015,574
1509013098023,586
1509013098031,591
1509013098039,597
1509013098043,600
1509013098051,598
1509013098059,599
1509013098067,592
1509013098076,587
1509013098084,581
1509013098092,571
1509013098100,565
1509013098109,555
1509013098117,547
1509013098125,540
1509013098133,530
1509013098141,525
1509013098150,517
1509013098158,510
1509013098166,506
1509013098174,499
1509013098182,497
1509013098190,493
1509013098198,491
1509013098206,492
1509013098211,489
1509013098219,493
1509013098227,493
1509013098236,496
1509013098244,500
1509013098252,502
1509013098260,505
1509013098268,506
1509013098276,508
1509013098285,510
1509013098293,508
1509013098301,510
1509013098309,507
1509013098317,506
1509013098325,505
1509013098334,501
1509013098342,501
1509013098350,497
1509013098358,494
1509013098366,493
1509013098371,489
1509013098379,488
1509013098387,485
1509013098395,484
1509013098403,484
1509013098412,481
1509013098420,482
1509013098428,482
1509013098436,480
1509013098444,483
1509013098453,481
1509013098461,483
1509013098469,484
1509013098477,484
1509013098485,485
1509013098493,484
1509013098502,486
1509013098510,485
1509013098518,485
1509013098526,486
1509013098530,484
1509013098538,485
1509013098546,484
1509013098555,482
1509013098563,483
1509013098571,480
1509013098579,481
1509013098587,479
1509013098596,479
1509013098604,480
1509013098612,477
1509013098621,479
1509013098629,477
1509013098637,475
1509013098645,478
1509013098653,475
1509013098661,476
1509013098670,476
1509013098677,474
1509013098686,476
1509013098691,474
1509013098698,479
1509013098706,478
1509013098715,478
1509013098723,480
1509013098731,477
1509013098739,481
1509013098747,482
1509013098755,485
1509013098764,492
1509013098772,496
1509013098780,506
1509013098788,517
1509013098796,529
1509013098804,542
1509013098813,553
1509013098821,566
1509013098829,575
1509013098837,582
1509013098845,590
1509013098850,590
1509013098858,591
1509013098866,589
1509013098875,584
1509013098882,579
1509013098890,569
1509013098898,562
1509013098906,552
1509013098915,543
1509013098923,537
1509013098931,526
1509013098940,520
1509013098948,512
1509013098956,505
1509013098964,500
1509013098972,495
1509013098981,491
1509013098989,487
1509013098997,484
1509013099005,484
1509013099009,481
1509013099017,482
1509013099026,483
1509013099034,484
1509013099042,489
1509013099050,490
1509013099058,494
1509013099066,496
1509013099075,498
1509013099083,498
1509013099092,496
1509013099099,498
1509013099108,499
1509013099116,497
1509013099124,498
1509013099133,495
1509013099141,494
1509013099149,492
1509013099157,490
1509013099165,490
1509013099170,485
1509013099178,485
1509013099186,483
1509013099194,480
1509013099202,481
1509013099210,478
1509013099219,478
1509013099227,478
1509013099235,476
1509013099243,477
1509013099251,476
1509013099260,478
1509013099267,478
1509013099276,478
1509013099284,480
1509013099292,479
1509013099301,481
1509013099309,482
1509013099317,481
1509013099325,483
1509013099329,481
1509013099337,482
1509013099345,482
1509013099354,481
1509013099362,482
1509013099370,480
1509013099378,481
1509013099386,481
1509013099395,479
1509013099403,481
1509013099411,479
1509013099419,480
1509013099427,479
1509013099435,478
1509013099444,479
1509013099452,476
1509013099460,477
1509013099468,476
1509013099476,474
1509013099484,475
1509013099488,472
1509013099497,474
1509013099505,474
1509013099513,474
1509013099521,478
1509013099530,480
1509013099538,486
1509013099546,493
1509013099554,501
1509013099563,514
1509013099570,524
1509013099578,538
1509013099587,550
1509013099595,559
1509013099603,570
1509013099612,575
1509013099619,585
1509013099628,590
1509013099636,588
1509013099644,584
1509013099648,573
1509013099656,565
1509013099664,556
1509013099673,546
1509013099681,538
1509013099689,527
1509013099697,519
1509013099705,512
1509013099714,503
1509013099722,499
1509013099730,492
1509013099738,486
1509013099746,483
1509013099756,477
1509013099764,477
1509013099772,474
1509013099780,475
1509013099788,476
1509013099796,477
1509013099804,482
1509013099809,484
1509013099817,487
1509013099825,491
1509013099833,494
1509013099841,498
1509013099851,498
1509013099858,502
1509013099866,503
1509013099874,502
1509013099882,504
1509013099890,500
1509013099898,499
1509013099907,497
1509013099915,493
1509013099923,493
1509013099931,488
1509013099939,486
1509013099948,484
1509013099956,480
1509013099964,480
1509013099968,477
1509013099976,476
1509013099984,476
1509013099993,473
1509013100001,474
1509013100009,473
1509013100017,474
1509013100025,475
1509013100033,474
1509013100042,476
1509013100050,476
1509013100058,478
1509013100066,479
1509013100074,478
1509013100082,481
1509013100091,480
1509013100099,481
1509013100107,483
1509013100115,481
1509013100123,482
1509013100127,482
1509013100136,482
1509013100144,483
1509013100152,481
1509013100160,482
1509013100169,479
1509013100177,478
1509013100185,479
1509013100193,475
1509013100201,476
1509013100209,475
1509013100218,477
1509013100226,481
1509013100234,485
1509013100242,493
1509013100250,501
1509013100258,512
1509013100267,525
1509013100275,535
1509013100283,547
1509013100287,556
1509013100295,564
1509013100304,572
1509013100312,574
1509013100320,577
1509013100328,575
1509013100337,571
1509013100345,566
1509013100353,558
1509013100361,552
1509013100370,543
1509013100378,534
1509013100386,526
1509013100394,516
1509013100402,509
1509013100410,501
1509013100418,493
1509013100427,488
1509013100435,480
1509013100443,477
1509013100447,472
1509013100455,471
1509013100463,471
1509013100472,470
1509013100480,474
1509013100488,476
1509013100497,480
1509013100505,485
1509013100513,488
1509013100521,494
1509013100530,497
1509013100537,500
1509013100546,503
1509013100554,504
1509013100562,506
1509013100570,505
1509013100578,504
1509013100586,504
1509013100594,499
1509013100603,499
1509013100607,495
1509013100615,492
1509013100623,491
1509013100632,486
1509013100639,485
1509013100648,482
1509013100656,480
1509013100664,479
1509013100672,476
1509013100680,478
1509013100689,476
1509013100697,475
1509013100705,477
1509013100713,475
1509013100721,477
1509013100730,477
1509013100738,479
1509013100746,481
1509013100754,480
1509013100762,482
1509013100766,483
1509013100775,483
1509013100783,485
1509013100791,483
1509013100799,485
1509013100807,485
1509013100816,484
1509013100823,485
1509013100832,484
1509013100840,485
1509013100848,484
1509013100856,485
1509013100864,488
1509013100873,489
1509013100882,497
1509013100890,503
1509013100898,511
1509013100906,523
1509013100915,531
1509013100923,544
1509013100931,555
1509013100935,565
1509013100943,574
1509013100951,578
1509013100960,583
1509013100968,582
1509013100976,582
1509013100984,579
1509013100992,572
1509013101000,567
1509013101008,559
1509013101016,551
1509013101025,544
1509013101033,535
1509013101041,527
1509013101049,519
1509013101057,512
1509013101066,505
1509013101074,497
1509013101082,494
1509013101090,489
1509013101094,484
1509013101102,484
1509013101110,480
1509013101119,482
1509013101127,482
1509013101135,484
1509013101143,488
1509013101151,489
1509013101159,494
1509013101168,497
1509013101176,500
1509013101184,505
1509013101193,505
1509013101201,508
1509013101209,509
1509013101217,509
1509013101225,510
1509013101234,506
1509013101241,506
1509013101250,503
1509013101254,500
1509013101262,499
1509013101270,494
1509013101279,493
1509013101287,490
1509013101295,487
1509013101303,487
1509013101311,483
1509013101319,483
1509013101327,482
1509013101336,480
1509013101344,482
1509013101352,481
1509013101360,483
1509013101368,482
1509013101376,482
1509013101385,485
1509013101393,484
1509013101401,485
1509013101409,485
1509013101414,485
1509013101422,487
1509013101430,486
1509013101438,487
1509013101446,487
1509013101454,487
1509013101462,489
1509013101471,487
1509013101479,489
1509013101487,491
1509013101495,493
1509013101504,500
1509013101511,505
1509013101520,515
1509013101529,525
1509013101537,536
1509013101545,549
1509013101553,559
1509013101562,571
1509013101570,580
1509013101574,587
1509013101582,593
1509013101590,594
1509013101599,595
1509013101606,593
1509013101615,588
1509013101623,586
1509013101631,577
1509013101639,571
1509013101647,564
1509013101656,557
1509013101664,551
1509013101672,541
1509013101680,537
1509013101688,530
1509013101697,522
1509013101705,520
1509013101713,513
1509013101721,509
1509013101729,505
1509013101733,501
1509013101741,500
1509013101750,498
1509013101759,499
1509013101766,500
1509013101774,500
1509013101782,504
1509013101791,504
1509013101799,507
1509013101807,510
1509013101815,511
1509013101823,514
1509013101831,514
1509013101839,514
1509013101847,514
1509013101857,512
1509013101865,513
1509013101873,509
1509013101881,508
1509013101889,506
1509013101893,503
1509013101902,503
1509013101910,499
1509013101917,498
1509013101926,497
1509013101935,494
1509013101943,493
1509013101951,490
1509013101959,490
1509013101967,490
1509013101975,488
1509013101983,490
1509013101992,487
1509013102000,488
1509013102008,489
1509013102016,488
1509013102024,491
1509013102033,490
1509013102040,491
1509013102048,491
1509013102053,491
1509013102061,492
1509013102069,489
1509013102077,490
1509013102086,490
1509013102094,487
1509013102102,489
1509013102110,487
1509013102118,487
1509013102127,488
1509013102135,487
1509013102143,489
1509013102151,490
1509013102159,495
1509013102167,501
1509013102176,509
1509013102183,521
1509013102192,532
1509013102200,546
1509013102208,561
1509013102212,573
1509013102220,587
1509013102229,596
1509013102237,605
1509013102245,611
1509013102253,612
1509013102261,616
1509013102269,613
1509013102277,610
1509013102285,607
1509013102294,599
1509013102302,595
1509013102310,586
1509013102319,580
1509013102327,574
1509013102335,566
1509013102344,562
1509013102352,553
1509013102360,548
1509013102368,542
1509013102372,533
1509013102381,530
1509013102389,523
1509013102397,520
1509013102405,517
1509013102413,514
1509013102421,514
1509013102430,511
1509013102438,512
1509013102446,514
1509013102454,514
1509013102462,518
1509013102471,518
1509013102479,521
1509013102487,523
1509013102495,523
1509013102503,524
1509013102512,523
1509013102520,523
1509013102528,522
1509013102532,519
1509013102540,518
1509013102548,516
1509013102557,513
1509013102565,511
1509013102573,507
1509013102581,507
1509013102589,503
1509013102598,500
1509013102606,500
1509013102614,497
1509013102622,497
1509013102630,495
1509013102638,495
1509013102646,496
1509013102655,493
1509013102663,495
1509013102672,493
1509013102680,494
1509013102687,494
1509013102691,492
1509013102700,494
1509013102708,493
1509013102716,493
1509013102725,494
1509013102733,492
1509013102741,494
1509013102749,492
1509013102757,492
1509013102765,492
1509013102774,489
1509013102782,490
1509013102790,488
1509013102798,488
1509013102807,488
1509013102816,485
1509013102823,487
1509013102832,484
1509013102840,485
1509013102848,488
1509013102852,488
1509013102860,495
1509013102867,501
1509013102876,510
1509013102884,523
1509013102892,534
1509013102901,551
1509013102909,565
1509013102917,579
1509013102925,593
1509013102933,601
1509013102941,611
1509013102950,616
1509013102958,619
1509013102966,622
1509013102974,618
1509013102982,617
1509013102991,612
1509013102998,606
1509013103007,602
1509013103011,593
1509013103019,588
1509013103027,580
1509013103035,574
1509013103044,569
1509013103052,560
1509013103060,554
1509013103068,547
1509013103076,540
1509013103084,536
1509013103093,530
1509013103101,527
1509013103110,523
1509013103118,520
1509013103126,521
1509013103135,519
1509013103143,521
1509013103151,521
1509013103159,522
1509013103167,526
1509013103171,526
1509013103180,529
1509013103188,531
1509013103196,531
1509013103204,532
1509013103212,530
1509013103220,530
1509013103229,528
1509013103237,525
1509013103245,524
1509013103253,519
1509013103262,516
1509013103270,513
1509013103277,509
1509013103286,508
1509013103294,502
1509013103302,501
1509013103310,498
1509013103319,496
1509013103327,496
1509013103335,492
1509013103339,492
1509013103347,491
1509013103356,489
1509013103364,491
1509013103372,489
1509013103380,491
1509013103388,489
1509013103396,489
1509013103404,493
1509013103413,497
1509013103421,499
1509013103429,497
1509013103437,496
1509013103445,498
1509013103453,498
1509013103461,498
1509013103470,496
1509013103478,497
1509013103486,496
1509013103494,491
1509013103498,490
1509013103506,487
1509013103515,486
1509013103523,485
1509013103532,481
1509013103539,480
1509013103548,478
1509013103556,475
1509013103564,475
1509013103572,473
1509013103581,473
1509013103589,473
1509013103597,474
1509013103605,479
1509013103613,481
1509013103621,490
1509013103630,499
1509013103638,509
1509013103646,525
1509013103654,537
1509013103658,553
1509013103667,568
1509013103675,580
1509013103683,594
1509013103691,602
1509013103699,612
1509013103708,618
1509013103716,619
1509013103724,623
1509013103732,618
1509013103740,615
1509013103749,610
1509013103757,603
1509013103765,598
1509013103773,590
1509013103781,585
1509013103790,578
1509013103798,569
1509013103806,563
1509013103814,555
1509013103818,551
1509013103826,543
1509013103834,536
1509013103842,533
1509013103851,526
1509013103859,523
1509013103867,521
1509013103875,519
1509013103883,520
1509013103891,520
1509013103900,522
1509013103908,523
1509013103916,523
1509013103924,527
1509013103932,525
1509013103941,527
1509013103949,527
1509013103957,525
1509013103965,527
1509013103973,525
1509013103978,524
1509013103986,522
1509013103994,519
1509013104002,517
1509013104010,512
1509013104019,510
1509013104026,507
1509013104035,502
1509013104043,502
1509013104051,497
1509013104059,496
1509013104067,494
1509013104076,492
1509013104084,491
1509013104093,488
1509013104100,489
1509013104109,487
1509013104117,486
1509013104125,489
1509013104133,486
1509013104137,487
1509013104146,487
1509013104154,485
1509013104162,488
1509013104170,486
1509013104178,486
1509013104186,486
1509013104195,484
1509013104203,486
1509013104211,483
1509013104219,484
1509013104227,484
1509013104236,481
1509013104244,483
1509013104252,479
1509013104260,479
1509013104268,480
1509013104277,477
1509013104285,479
1509013104292,476
1509013104298,477
1509013104305,476
1509013104313,474
1509013104321,476
1509013104330,473
1509013104338,474
1509013104346,473
1509013104354,470
1509013104362,472
1509013104371,471
1509013104379,474
1509013104387,479
1509013104395,486
1509013104403,500
1509013104412,505
1509013104420,520
1509013104428,536
1509013104437,543
1509013104445,558
1509013104453,568
1509013104458,579
1509013104465,589
1509013104473,594
1509013104481,599
1509013104490,600
1509013104498,600
1509013104506,598
1509013104514,592
1509013104522,590
1509013104531,581
1509013104539,575
1509013104547,569
1509013104556,560
1509013104564,556
1509013104572,548
1509013104580,542
1509013104588,537
1509013104596,530
1509013104604,526
1509013104613,518
1509013104617,515
1509013104625,511
1509013104633,506
1509013104641,507
1509013104650,504
1509013104658,504
1509013104666,507
1509013104674,506
1509013104682,511
1509013104691,512
1509013104699,514
1509013104707,516
1509013104715,516
1509013104723,519
1509013104731,518
1509013104739,517
1509013104747,517
1509013104756,513
1509013104764,513
1509013104772,509
1509013104776,507
1509013104784,504
1509013104793,499
1509013104801,497
1509013104809,493
1509013104817,490
1509013104825,489
1509013104833,485
1509013104842,485
1509013104850,481
1509013104858,480
1509013104866,481
1509013104874,479
1509013104882,484
1509013104891,485
1509013104899,485
1509013104907,484
1509013104915,480
1509013104923,479
1509013104932,476
1509013104936,477
1509013104944,478
1509013104952,475
1509013104961,477
1509013104969,476
1509013104977,476
1509013104985,477
1509013104993,476
1509013105001,477
1509013105010,475
1509013105018,475
1509013105026,477
1509013105034,475
1509013105042,477
1509013105050,475
1509013105058,475
1509013105067,476
1509013105075,475
1509013105083,475
1509013105091,472
1509013105095,472
1509013105103,472
1509013105112,469
1509013105120,470
1509013105128,468
1509013105136,467
1509013105144,469
1509013105153,469
1509013105161,475
1509013105169,481
1509013105177,490
1509013105186,501
1509013105194,512
1509013105202,527
1509013105210,539
1509013105218,552
1509013105226,565
1509013105234,573
1509013105243,583
1509013105251,586
1509013105255,588
1509013105264,590
1509013105272,586
1509013105280,583
1509013105288,577
1509013105296,571
1509013105304,564
1509013105312,555
1509013105321,549
1509013105329,538
1509013105337,531
1509013105346,524
1509013105354,514
1509013105362,509
1509013105370,502
1509013105378,496
1509013105387,493
1509013105395,487
1509013105403,486
1509013105411,484
1509013105415,484
1509013105424,486
1509013105432,487
1509013105440,491
1509013105448,494
1509013105456,496
1509013105464,502
1509013105473,503
1509013105481,507
1509013105489,507
1509013105497,508
1509013105505,510
1509013105513,508
1509013105522,508
1509013105530,504
1509013105538,502
1509013105546,501
1509013105555,495
1509013105563,494
1509013105571,490
1509013105578,487
1509013105583,486
1509013105591,481
1509013105600,480
1509013105607,478
1509013105616,476
1509013105624,477
1509013105632,473
1509013105640,475
1509013105649,474
1509013105657,473
1509013105665,475
1509013105673,473
1509013105682,475
1509013105690,476
1509013105698,476
1509013105706,478
1509013105714,476
1509013105723,479
1509013105731,479
1509013105735,479
1509013105743,481
1509013105751,478
1509013105759,479
1509013105767,478
1509013105775,477
1509013105784,478
1509013105792,474
1509013105800,475
1509013105809,473
1509013105816,472
1509013105824,473
1509013105833,469
1509013105841,470
1509013105849,469
1509013105857,467
1509013105866,471
1509013105874,469
1509013105882,473
1509013105890,478
1509013105898,485
1509013105902,496
1509013105911,504
1509013105919,517
1509013105927,529
1509013105935,541
1509013105944,554
1509013105952,562
1509013105961,571
1509013105969,575
1509013105977,576
1509013105985,579
1509013105993,575
1509013106001,572
1509013106010,565
1509013106018,558
1509013106026,552
1509013106034,542
1509013106042,535
1509013106050,527
1509013106058,517
1509013106063,512
1509013106071,502
1509013106079,496
1509013106087,490
1509013106095,483
1509013106103,481
1509013106112,477
1509013106120,477
1509013106128,477
1509013106136,477
1509013106144,481
1509013106152,481
1509013106160,486
1509013106169,489
1509013106177,491
1509013106185,496
1509013106193,497
1509013106201,501
1509013106210,502
1509013106217,503
1509013106222,505
1509013106230,502
1509013106238,502
1509013106246,499
1509013106255,496
1509013106263,495
1509013106271,490
1509013106279,488
1509013106287,486
1509013106296,482
1509013106304,481
1509013106312,477
1509013106321,477
1509013106329,474
1509013106337,472
1509013106345,474
1509013106353,472
1509013106362,472
1509013106370,472
1509013106378,471
1509013106382,473
1509013106390,472
1509013106398,474
1509013106406,475
1509013106415,476
1509013106423,479
1509013106431,477
1509013106439,479
1509013106447,479
1509013106456,477
1509013106464,479
1509013106472,476
1509013106480,477
1509013106488,477
1509013106496,475
1509013106505,477
1509013106513,473
1509013106521,475
1509013106529,476
1509013106537,477
1509013106541,482
1509013106549,485
1509013106558,495
1509013106566,504
1509013106574,514
1509013106582,529
1509013106592,538
1509013106599,551
1509013106607,562
1509013106616,569
1509013106623,577
1509013106633,579
1509013106641,580
1509013106649,578
1509013106657,574
1509013106665,570
1509013106673,562
1509013106681,555
1509013106690,548
1509013106697,538
1509013106702,533
1509013106710,523
1509013106718,516
1509013106727,510
1509013106734,501
1509013106743,497
1509013106751,489
1509013106759,485
1509013106767,482
1509013106776,477
1509013106784,478
1509013106792,476
1509013106800,477
1509013106808,480
1509013106817,480
1509013106825,485
1509013106833,487
1509013106841,491
1509013106850,496
1509013106857,497
1509013106862,501
1509013106870,501
1509013106878,503
1509013106886,504
1509013106894,501
1509013106902,501
1509013106911,498
1509013106919,497
1509013106927,495
1509013106935,491
1509013106943,489
1509013106951,485
1509013106960,483
1509013106968,481
1509013106976,477
1509013106984,478
1509013106992,474
1509013107000,474
1509013107009,473
1509013107017,471
1509013107021,473
1509013107029,472
1509013107037,474
1509013107045,475
1509013107053,476
1509013107062,478
1509013107070,477
1509013107078,478
1509013107086,479
1509013107095,477
1509013107103,479
1509013107111,478
1509013107119,478
1509013107127,478
1509013107135,476
1509013107143,478
1509013107152,476
1509013107160,477
1509013107168,479
1509013107176,478
1509013107180,484
1509013107189,488
1509013107197,498
1509013107205,510
1509013107213,519
1509013107221,535
1509013107230,547
1509013107238,559
1509013107246,571
1509013107254,579
1509013107262,588
1509013107271,591
1509013107279,594
1509013107287,594
1509013107295,589
1509013107303,586
1509013107312,580
1509013107319,573
1509013107328,567
1509013107336,557
1509013107340,552
1509013107348,543
1509013107356,537
1509013107365,531
1509013107373,523
1509013107381,519
1509013107389,512
1509013107397,506
1509013107405,504
1509013107414,498
1509013107422,496
1509013107430,494
1509013107438,492
1509013107446,493
1509013107454,492
1509013107462,494
1509013107471,495
1509013107479,498
1509013107488,501
1509013107496,501
1509013107501,505
1509013107508,505
1509013107517,506
1509013107525,508
1509013107533,507
1509013107541,508
1509013107550,506
1509013107557,505
1509013107565,504
1509013107574,499
1509013107582,498
1509013107590,494
1509013107598,492
1509013107607,491
1509013107615,486
1509013107623,485
1509013107631,482
1509013107639,481
1509013107648,481
1509013107655,479
1509013107660,480
1509013107668,478
1509013107677,477
1509013107684,479
1509013107693,476
1509013107700,479
1509013107709,478
1509013107717,478
1509013107725,480
1509013107733,479
1509013107741,481
1509013107750,481
1509013107758,482
1509013107767,483
1509013107775,481
1509013107782,483
1509013107791,482
1509013107799,482
1509013107807,482
1509013107815,480
1509013107820,480
1509013107828,480
1509013107836,482
1509013107844,486
1509013107853,490
1509013107861,499
1509013107869,508
1509013107878,519
1509013107885,534
1509013107893,546
1509013107901,561
1509013107910,574
1509013107918,584
1509013107926,595
1509013107935,599
1509013107943,605
1509013107951,605
1509013107959,605
1509013107967,603
1509013107975,596
1509013107980,593
1509013107988,585
1509013107996,577
1509013108004,571
1509013108012,562
1509013108020,556
1509013108028,548
1509013108037,543
1509013108045,538
1509013108053,530
1509013108061,525
1509013108070,520
1509013108078,515
1509013108086,513
1509013108094,507
1509013108102,506
1509013108111,504
1509013108119,503
1509013108127,505
1509013108135,504
1509013108139,507
1509013108147,507
1509013108156,509
1509013108164,512
1509013108172,512
1509013108180,514
1509013108188,515
1509013108196,514
1509013108204,515
1509013108213,512
1509013108221,512
1509013108230,510
1509013108237,507
1509013108246,506
1509013108254,502
1509013108262,500
1509013108270,497
1509013108278,493
1509013108286,494
1509013108295,488
1509013108302,488
1509013108307,486
1509013108315,483
1509013108323,484
1509013108332,481
1509013108340,483
1509013108348,481
1509013108356,481
1509013108364,483
1509013108372,481
1509013108380,483
1509013108389,483
1509013108397,482
1509013108405,485
1509013108413,483
1509013108421,484
1509013108430,484
1509013108438,483
1509013108446,485
1509013108454,482
1509013108462,484
1509013108466,483
1509013108475,481
1509013108483,484
1509013108491,480
1509013108499,481
1509013108507,480
1509013108515,478
1509013108524,479
1509013108532,476
1509013108540,476
1509013108548,475
1509013108557,474
1509013108565,476
1509013108573,475
1509013108581,480
1509013108590,485
1509013108598,492
1509013108606,504
1509013108614,515
1509013108621,530
1509013108627,546
1509013108634,561
1509013108643,579
1509013108651,590
1509013108659,603
1509013108667,611
1509013108676,616
1509013108684,621
1509013108692,618
1509013108700,617
1509013108708,613
1509013108717,605
1509013108725,600
1509013108733,591
1509013108741,584
1509013108750,576
1509013108757,567
1509013108766,562
1509013108774,553
1509013108782,549
1509013108786,544
1509013108795,536
1509013108803,533
1509013108811,527
1509013108819,524
1509013108827,520
1509013108836,517
1509013108844,517
1509013108852,515
1509013108860,516
1509013108868,516
1509013108877,516
1509013108885,520
1509013108893,520
1509013108901,522
1509013108909,524
1509013108917,523
1509013108925,526
1509013108934,524
1509013108942,525
1509013108946,524
1509013108954,522
1509013108962,523
1509013108971,518
1509013108979,517
1509013108987,515
1509013108995,511
1509013109004,511
1509013109012,506
1509013109020,503
1509013109028,501
1509013109036,498
1509013109044,497
1509013109053,493
1509013109061,492
1509013109069,491
1509013109077,488
1509013109085,490
1509013109093,487
1509013109101,488
1509013109106,488
1509013109114,486
1509013109122,488
1509013109130,486
1509013109138,487
1509013109146,486
1509013109155,484
1509013109163,487
1509013109171,484
1509013109179,484
1509013109187,485
1509013109195,482
1509013109203,483
1509013109212,480
1509013109220,480
1509013109228,480
1509013109236,478
1509013109244,479
1509013109254,477
1509013109261,477
1509013109266,477
1509013109274,475
1509013109282,478
1509013109290,475
1509013109298,475
1509013109307,476
1509013109315,474
1509013109323,476
1509013109331,474
1509013109339,474
1509013109347,474
1509013109356,471
1509013109364,473
1509013109372,471
1509013109380,472
1509013109388,474
1509013109397,476
1509013109405,483
1509013109413,489
1509013109421,500
1509013109425,513
1509013109433,527
1509013109441,543
1509013109450,558
1509013109458,576
1509013109466,590
1509013109474,600
1509013109482,611
1509013109491,616
1509013109499,619
1509013109507,621
1509013109515,617
1509013109523,615
1509013109532,608
1509013109540,602
1509013109548,595
1509013109556,586
1509013109564,580
1509013109572,572
1509013109580,566
1509013109585,561
1509013109593,551
1509013109601,548
1509013109609,541
1509013109617,536
1509013109625,532
1509013109634,526
1509013109642,525
1509013109650,521
1509013109658,519
1509013109666,519
1509013109675,517
1509013109683,520
1509013109691,519
1509013109699,521
1509013109707,524
1509013109716,523
1509013109724,526
1509013109732,526
1509013109740,527
1509013109744,528
1509013109752,526
1509013109760,527
1509013109769,523
1509013109777,521
1509013109785,519
1509013109793,514
1509013109801,513
1509013109809,508
1509013109818,505
1509013109826,503
1509013109834,499
1509013109842,497
1509013109850,494
1509013109858,492
1509013109867,490
1509013109875,486
1509013109883,487
1509013109891,485
1509013109899,484
1509013109903,485
1509013109912,483
1509013109920,484
1509013109928,483
1509013109936,484
1509013109944,484
1509013109953,483
1509013109961,485
1509013109969,484
1509013109978,484
1509013109986,486
1509013109994,483
1509013110002,485
1509013110010,483
1509013110018,482
1509013110026,482
1509013110036,480
1509013110043,481
1509013110052,479
1509013110060,478
1509013110064,478
1509013110072,476
1509013110080,477
1509013110088,476
1509013110096,474
1509013110104,476
1509013110113,472
1509013110121,473
1509013110130,472
1509013110137,470
1509013110146,470
1509013110154,469
1509013110162,471
1509013110170,469
1509013110178,470
1509013110186,473
1509013110195,475
1509013110203,482
1509013110211,488
1509013110219,498
1509013110223,512
1509013110232,524
1509013110240,540
1509013110248,554
1509013110256,568
1509013110264,582
1509013110273,590
1509013110281,599
1509013110289,603
1509013110297,605
1509013110306,606
1509013110314,601
1509013110322,599
1509013110330,591
1509013110338,583
1509013110347,578
1509013110355,567
1509013110363,561
1509013110371,552
1509013110379,545
1509013110383,540
1509013110392,532
1509013110400,527
1509013110408,521
1509013110416,516
1509013110424,513
1509013110432,508
1509013110440,507
1509013110449,505
1509013110457,504
1509013110465,506
1509013110474,506
1509013110482,509
1509013110490,510
1509013110498,511
1509013110507,514
1509013110515,514
1509013110523,518
1509013110531,517
1509013110539,518
1509013110544,519
1509013110552,516
1509013110560,516
1509013110568,515
1509013110577,513
1509013110584,511
1509013110593,505
1509013110601,504
1509013110609,500
1509013110617,496
1509013110625,495
1509013110633,489
1509013110641,489
1509013110650,486
1509013110658,483
1509013110666,483
1509013110675,480
1509013110682,481
1509013110690,480
1509013110698,479
1509013110702,481
1509013110711,478
1509013110719,480
1509013110728,479
1509013110737,478
1509013110744,480
1509013110753,478
1509013110760,480
1509013110769,480
1509013110777,479
1509013110784,481
1509013110793,479
1509013110801,480
1509013110810,479
1509013110818,478
1509013110826,479
1509013110834,477
1509013110842,478
1509013110851,477
1509013110859,475
1509013110867,476
1509013110872,474
1509013110880,474
1509013110888,473
1509013110896,472
1509013110904,473
1509013110913,469
1509013110920,470
1509013110928,469
1509013110937,468
1509013110946,470
1509013110953,469
1509013110961,473
1509013110969,477
1509013110977,483
1509013110985,494
1509013110994,503
1509013111002,518
1509013111010,531
1509013111018,544
1509013111026,560
1509013111030,570
1509013111039,581
1509013111047,590
1509013111055,593
1509013111063,598
1509013111071,596
1509013111079,595
1509013111088,590
1509013111096,583
1509013111104,578
1509013111112,569
1509013111121,562
1509013111130,554
1509013111137,545
1509013111145,540
1509013111154,531
1509013111162,524
1509013111170,517
1509013111178,510
1509013111186,506
1509013111191,500
1509013111199,498
1509013111207,496
1509013111215,492
1509013111223,495
1509013111232,494
1509013111240,497
1509013111248,498
1509013111256,499
1509013111264,504
1509013111273,506
1509013111281,509
1509013111289,511
1509013111297,512
1509013111305,514
1509013111314,512
1509013111321,513
1509013111330,512
1509013111337,508
1509013111345,508
1509013111350,503
1509013111358,502
1509013111366,499
1509013111375,499
1509013111383,498
1509013111391,493
1509013111399,491
1509013111407,486
1509013111416,481
1509013111424,481
1509013111432,477
1509013111440,476
1509013111448,476
1509013111457,474
1509013111465,476
1509013111473,474
1509013111481,475
1509013111490,476
1509013111497,476
1509013111505,478
1509013111510,476
1509013111518,479
1509013111526,479
1509013111534,478
1509013111543,481
1509013111551,479
1509013111559,479
1509013111567,480
1509013111575,479
1509013111583,480
1509013111592,479
1509013111600,480
1509013111608,480
1509013111616,477
1509013111624,479
1509013111632,476
1509013111640,476
1509013111650,475
1509013111657,472
1509013111665,473
1509013111669,471
1509013111678,471
1509013111686,470
1509013111694,469
1509013111702,474
1509013111710,475
1509013111718,480
1509013111727,487
1509013111735,495
1509013111743,509
1509013111751,519
1509013111759,534
1509013111767,549
1509013111776,561
1509013111784,574
1509013111792,582
1509013111801,590
1509013111809,595
1509013111817,594
1509013111825,596
1509013111829,590
1509013111837,586
1509013111846,581
1509013111853,572
1509013111862,566
1509013111870,556
1509013111878,548
1509013111887,542
1509013111896,533
1509013111904,527
1509013111912,518
1509013111920,512
1509013111928,508
1509013111936,500
1509013111944,500
1509013111953,494
1509013111961,492
1509013111969,493
1509013111977,491
1509013111985,494
1509013111990,493
1509013111998,497
1509013112006,501
1509013112014,502
1509013112022,508
1509013112030,510
1509013112039,512
1509013112047,514
1509013112055,513
1509013112063,514
1509013112071,513
1509013112080,512
1509013112087,511
1509013112096,507
1509013112104,506
1509013112112,501
1509013112120,499
1509013112128,496
1509013112136,491
1509013112145,490
1509013112149,486
1509013112157,484
1509013112165,483
1509013112174,480
1509013112182,480
1509013112190,479
1509013112198,479
1509013112206,480
1509013112214,477
1509013112222,480
1509013112231,478
1509013112239,479
1509013112247,481
1509013112255,479
1509013112263,481
1509013112272,481
1509013112280,482
1509013112288,483
1509013112296,481
1509013112304,483
1509013112308,480
1509013112317,481
1509013112325,481
1509013112333,478
1509013112341,480
1509013112349,478
1509013112358,478
1509013112366,477
1509013112374,474
1509013112382,475
1509013112390,472
1509013112398,472
1509013112407,473
1509013112415,470
1509013112423,472
1509013112431,471
1509013112439,473
1509013112447,480
1509013112456,484
1509013112464,494
1509013112468,504
1509013112476,515
1509013112484,530
1509013112492,542
1509013112501,558
1509013112509,568
1509013112517,579
1509013112525,588
1509013112533,591
1509013112542,597
1509013112550,597
1509013112559,594
1509013112567,592
1509013112575,585
1509013112583,579
1509013112591,570
1509013112599,563
1509013112607,555
1509013112616,544
1509013112624,539
1509013112628,530
1509013112636,523
1509013112644,517
1509013112652,510
1509013112661,506
1509013112669,501
1509013112677,498
1509013112685,496
1509013112693,494
1509013112701,496
1509013112710,496
1509013112718,498
1509013112726,502
1509013112734,503
1509013112742,509
1509013112751,512
1509013112759,514
1509013112767,518
1509013112775,518
1509013112783,520
1509013112788,520
1509013112796,520
1509013112804,519
1509013112813,515
1509013112821,515
1509013112829,510
1509013112837,507
1509013112845,505
1509013112854,500
1509013112862,498
1509013112870,495
1509013112878,492
1509013112886,491
1509013112894,487
1509013112902,486
1509013112911,483
1509013112919,481
1509013112927,481
1509013112935,479
1509013112943,481
1509013112948,480
1509013112956,479
1509013112964,481
1509013112972,479
1509013112980,481
1509013112989,481
1509013112997,482
1509013113005,483
1509013113014,482
1509013113022,484
1509013113030,484
1509013113038,484
1509013113046,484
1509013113054,482
1509013113063,482
1509013113071,481
1509013113079,479
1509013113087,479
1509013113095,476
1509013113103,478
1509013113111,476
1509013113116,478
1509013113124,481
1509013113132,483
1509013113140,490
1509013113149,497
1509013113157,506
1509013113165,519
1509013113173,530
1509013113181,543
1509013113190,554
1509013113198,564
1509013113206,574
1509013113214,579
1509013113222,585
1509013113231,585
1509013113239,584
1509013113247,584
1509013113255,577
1509013113263,573
1509013113271,564
1509013113276,556
1509013113284,548
1509013113293,537
1509013113300,531
1509013113308,521
1509013113316,513
1509013113324,507
1509013113333,498
1509013113341,495
1509013113349,490
1509013113357,486
1509013113365,486
1509013113373,484
1509013113381,486
1509013113390,488
1509013113398,492
1509013113406,497
1509013113414,499
1509013113423,504
1509013113431,508
1509013113436,510
1509013113443,515
1509013113451,515
1509013113460,516
1509013113468,516
1509013113477,514
1509013113484,514
1509013113492,510
1509013113500,509
1509013113508,505
1509013113517,502
1509013113525,499
1509013113533,493
1509013113541,491
1509013113550,488
1509013113557,485
1509013113566,485
1509013113574,481
1509013113582,482
1509013113590,480
1509013113595,479
1509013113603,480
1509013113611,478
1509013113619,481
1509013113627,481
1509013113635,480
1509013113643,483
1509013113653,483
1509013113660,483
1509013113668,484
1509013113677,483
1509013113685,484
1509013113693,482
1509013113701,484
1509013113709,482
1509013113717,481
1509013113726,483
1509013113734,480
1509013113742,481
1509013113750,481
1509013113754,482
1509013113762,487
1509013113771,491
1509013113779,500
1509013113787,509
1509013113795,519
1509013113804,532
1509013113812,542
1509013113820,555
1509013113828,564
1509013113836,572
1509013113844,580
1509013113853,583
1509013113861,585
1509013113870,585
1509013113877,582
1509013113885,580
1509013113893,574
1509013113901,569
1509013113909,562
1509013113914,554
1509013113922,548
1509013113930,537
1509013113938,530
1509013113946,523
1509013113955,514
1509013113963,509
1509013113971,502
1509013113979,498
1509013113987,495
1509013113996,493
1509013114004,494
1509013114012,493
1509013114020,495
1509013114028,498
1509013114037,500
1509013114045,506
1509013114053,508
1509013114061,512
1509013114069,516
1509013114073,517
1509013114081,522
1509013114090,520
1509013114098,520
1509013114106,520
1509013114114,517
1509013114123,516
1509013114131,512
1509013114139,509
1509013114147,506
1509013114156,501
1509013114164,500
1509013114172,494
1509013114180,493
1509013114189,491
1509013114197,488
1509013114205,489
1509013114213,486
1509013114221,486
1509013114229,486
1509013114233,485
1509013114241,486
1509013114250,485
1509013114258,486
1509013114266,486
1509013114274,485
1509013114283,487
1509013114291,485
1509013114299,485
1509013114307,485
1509013114315,483
1509013114323,485
1509013114331,483
1509013114339,483
1509013114348,484
1509013114356,484
1509013114364,487
1509013114372,489
1509013114380,495
1509013114388,504
1509013114393,511
1509013114401,525
1509013114409,537
1509013114417,549
1509013114425,563
1509013114434,573
1509013114442,586
1509013114450,592
1509013114458,600
1509013114466,604
1509013114474,605
1509013114483,606
1509013114491,601
1509013114499,598
1509013114507,593
1509013114515,586
1509013114524,581
1509013114532,574
1509013114540,567
1509013114548,560
1509013114552,553
1509013114561,549
1509013114569,539
1509013114577,534
1509013114586,530
1509013114594,524
1509013114602,523
1509013114611,519
1509013114619,519
1509013114627,518
1509013114635,519
1509013114643,521
1509013114652,521
1509013114660,524
1509013114668,528
1509013114676,529
1509013114684,533
1509013114692,532
1509013114701,534
1509013114709,534
1509013114713,532
1509013114721,531
1509013114729,528
1509013114737,525
1509013114745,522
1509013114754,517
1509013114762,515
1509013114770,509
1509013114778,506
1509013114786,503
1509013114794,498
1509013114803,498
1509013114812,495
1509013114820,494
1509013114828,494
1509013114836,491
1509013114844,492
1509013114853,489
1509013114861,490
1509013114869,490
1509013114873,489
1509013114881,491
1509013114889,489
1509013114897,490
1509013114905,490
1509013114914,488
1509013114922,489
1509013114930,488
1509013114938,488
1509013114946,489
1509013114954,488
1509013114963,492
1509013114971,492
1509013114979,497
1509013114987,505
1509013114995,512
1509013115003,524
1509013115012,536
1509013115020,549
1509013115028,565
1509013115032,577
1509013115040,591
1509013115049,603
1509013115057,613
1509013115065,622
1509013115073,625
1509013115081,630
1509013115090,631
1509013115098,632
1509013115106,631
1509013115114,628
1509013115122,625
1509013115131,620
1509013115138,617
1509013115147,612
1509013115155,606
1509013115163,602
1509013115171,594
1509013115179,588
1509013115187,583
1509013115192,574
1509013115200,569
1509013115208,561
1509013115216,556
1509013115225,552
1509013115233,546
1509013115241,545
1509013115249,542
1509013115257,542
1509013115266,542
1509013115274,541
1509013115282,545
1509013115290,543
1509013115298,543
1509013115307,544
1509013115315,542
1509013115323,542
1509013115331,539
1509013115339,537
1509013115347,535
1509013115352,530
1509013115360,528
1509013115368,523
1509013115376,520
1509013115384,518
1509013115392,511
1509013115401,510
1509013115409,505
1509013115417,502
1509013115425,500
1509013115433,496
1509013115442,496
1509013115450,492
1509013115458,492
1509013115466,492
1509013115474,489
1509013115483,491
1509013115491,488
1509013115499,488
1509013115507,488
1509013115515,487
1509013115519,488
1509013115527,486
1509013115536,486
1509013115545,487
1509013115552,483
1509013115560,484
1509013115568,481
1509013115576,479
1509013115585,480
1509013115593,477
1509013115601,478
1509013115609,476
1509013115617,476
1509013115626,479
1509013115634,480
1509013115642,487
1509013115650,494
1509013115659,505
1509013115667,519
1509013115675,533
1509013115680,552
1509013115688,569
1509013115696,586
1509013115704,605
1509013115713,619
1509013115721,634
1509013115729,646
1509013115737,655
1509013115745,664
1509013115753,667
1509013115761,673
1509013115769,672
1509013115777,672
1509013115785,672
1509013115794,668
1509013115802,666
1509013115810,661
1509013115818,656
1509013115826,651
1509013115834,643
1509013115839,637
1509013115847,627
1509013115855,617
1509013115863,608
1509013115872,596
1509013115880,588
1509013115888,578
1509013115896,569
1509013115904,563
1509013115912,555
1509013115920,552
1509013115929,547
1509013115937,544
1509013115946,543
1509013115954,537
1509013115962,537
1509013115971,535
1509013115979,533
1509013115987,532
1509013115995,528
1509013115999,531
1509013116007,529
1509013116016,525
1509013116024,522
1509013116032,517
1509013116040,514
1509013116048,510
1509013116056,506
1509013116064,504
1509013116073,497
1509013116081,496
1509013116089,493
1509013116098,489
1509013116105,489
1509013116113,486
1509013116121,485
1509013116130,483
1509013116138,481
1509013116146,481
1509013116154,479
1509013116158,480
1509013116166,477
1509013116175,476
1509013116183,477
1509013116191,474
1509013116199,475
1509013116207,474
1509013116216,472
1509013116224,472
1509013116232,470
1509013116240,471
1509013116248,469
1509013116256,467
1509013116264,469
1509013116273,465
1509013116282,467
1509013116289,465
1509013116298,463
1509013116306,465
1509013116313,463
1509013116319,463
1509013116327,462
1509013116335,460
1509013116343,461
1509013116351,458
1509013116360,459
1509013116368,458
1509013116376,458
1509013116384,459
1509013116392,456
1509013116400,458
1509013116408,457
1509013116416,456
1509013116425,457
1509013116433,458
1509013116441,463
1509013116450,469
1509013116457,478
1509013116465,492
1509013116473,504
1509013116478,523
1509013116486,541
1509013116494,559
1509013116502,580
1509013116511,595
1509013116519,612
1509013116527,625
1509013116535,636
1509013116543,646
1509013116552,649
1509013116560,655
1509013116568,657
1509013116576,656
1509013116585,658
1509013116593,653
1509013116601,652
1509013116609,649
1509013116617,643
1509013116626,641
1509013116633,633
1509013116638,628
1509013116646,620
1509013116654,610
1509013116662,604
1509013116671,591
1509013116679,584
1509013116687,574
1509013116695,565
1509013116703,560
1509013116712,551
1509013116720,546
1509013116728,542
1509013116736,538
1509013116744,537
1509013116753,533
1509013116761,533
1509013116769,531
1509013116777,529
1509013116785,530
1509013116793,527
1509013116797,526
1509013116806,524
1509013116814,521
1509013116822,520
1509013116830,515
1509013116838,513
1509013116847,510
1509013116855,506
1509013116863,504
1509013116872,499
1509013116879,497
1509013116887,494
1509013116896,490
1509013116904,490
1509013116912,485
1509013116920,484
1509013116928,483
1509013116936,480
1509013116945,481
1509013116953,478
1509013116957,479
1509013116965,478
1509013116973,476
1509013116981,477
1509013116990,474
1509013116998,474
1509013117006,474
1509013117014,473
1509013117022,474
1509013117031,471
1509013117039,471
1509013117047,470
1509013117055,468
1509013117063,469
1509013117071,465
1509013117080,465
1509013117088,464
1509013117096,462
1509013117104,463
1509013117112,461
1509013117117,462
1509013117125,460
1509013117134,459
1509013117141,460
1509013117149,456
1509013117158,457
1509013117166,457
1509013117174,455
1509013117182,457
1509013117191,455
1509013117199,455
1509013117207,456
1509013117216,454
1509013117224,456
1509013117232,454
1509013117240,454
1509013117249,454
1509013117257,452
1509013117265,454
1509013117273,451
1509013117277,451
1509013117285,451
1509013117293,449
1509013117302,450
1509013117310,448
1509013117318,450
1509013117327,451
1509013117334,453
1509013117343,461
1509013117351,466
1509013117359,477
1509013117367,495
1509013117375,509
1509013117384,528
1509013117392,544
1509013117400,561
1509013117408,582
1509013117416,594
1509013117425,608
1509013117433,617
1509013117437,624
1509013117445,623
1509013117453,621
1509013117461,622
1509013117470,622
1509013117478,621
1509013117485,619
1509013117493,614
1509013117502,610
1509013117510,605
1509013117518,600
1509013117526,592
1509013117534,583
1509013117543,576
1509013117551,567
1509013117559,561
1509013117568,555
1509013117576,548
1509013117584,545
1509013117592,537
1509013117600,534
1509013117604,529
1509013117612,523
1509013117621,523
1509013117629,520
1509013117638,518
1509013117646,518
1509013117654,515
1509013117662,516
1509013117670,514
1509013117678,514
1509013117686,513
1509013117695,511
1509013117702,511
1509013117711,508
1509013117719,506
1509013117727,504
1509013117736,502
1509013117744,501
1509013117752,496
1509013117760,493
1509013117764,492
1509013117772,487
1509013117781,486
1509013117789,484
1509013117797,481
1509013117805,479
1509013117813,476
1509013117821,477
1509013117830,473
1509013117838,473
1509013117846,473
1509013117854,470
1509013117862,470
1509013117871,469
1509013117879,468
1509013117887,469
1509013117895,467
1509013117903,468
1509013117911,465
1509013117919,466
1509013117924,467
1509013117932,465
1509013117940,466
1509013117949,465
1509013117957,464
1509013117965,464
1509013117973,462
1509013117981,464
1509013117990,461
1509013117998,461
1509013118006,461
1509013118014,459
1509013118022,460
1509013118031,458
1509013118039,458
1509013118047,457
1509013118055,455
1509013118063,455
1509013118072,453
1509013118079,453
1509013118084,453
1509013118092,452
1509013118100,454
1509013118108,452
1509013118117,453
1509013118125,454
1509013118133,453
1509013118141,454
1509013118149,453
1509013118157,453
1509013118165,455
1509013118173,453
1509013118182,454
1509013118190,453
1509013118198,454
1509013118206,454
1509013118215,452
1509013118223,455
1509013118231,456
1509013118239,461
1509013118244,469
1509013118252,476
1509013118260,488
1509013118268,499
1509013118276,514
1509013118284,530
1509013118293,543
1509013118301,559
1509013118309,570
1509013118317,580
1509013118325,589
1509013118334,591
1509013118342,595
1509013118350,595
1509013118358,592
1509013118366,591
1509013118375,585
1509013118383,580
1509013118391,573
1509013118399,568
1509013118403,563
1509013118411,557
1509013118419,552
1509013118428,545
1509013118436,539
1509013118444,534
1509013118453,527
1509013118460,524
1509013118469,518
1509013118477,513
1509013118485,509
1509013118494,504
1509013118501,504
1509013118510,500
1509013118518,500
1509013118526,499
1509013118534,497
1509013118542,499
1509013118550,498
1509013118558,498
1509013118562,499
1509013118571,498
1509013118579,500
1509013118587,499
1509013118595,498
1509013118603,498
1509013118612,495
1509013118620,495
1509013118628,493
1509013118636,491
1509013118645,490
1509013118653,486
1509013118661,482
1509013118670,480
1509013118677,477
1509013118686,476
1509013118694,473
1509013118702,474
1509013118710,470
1509013118718,470
1509013118722,470
1509013118730,467
1509013118739,469
1509013118747,468
1509013118756,468
1509013118764,470
1509013118772,469
1509013118780,469
1509013118788,471
1509013118797,472
1509013118805,471
1509013118813,468
1509013118822,469
1509013118829,467
1509013118837,466
1509013118846,468
1509013118854,464
1509013118862,465
1509013118870,463
1509013118878,463
1509013118883,464
1509013118891,461
1509013118899,462
1509013118907,460
1509013118915,459
1509013118923,460
1509013118932,457
1509013118940,459
1509013118948,460
1509013118956,459
1509013118964,459
1509013118973,458
1509013118981,459
1509013118989,457
1509013118997,457
1509013119005,458
1509013119013,455
1509013119021,457
1509013119029,456
1509013119037,455
1509013119042,456
1509013119051,455
1509013119058,456
1509013119066,457
1509013119075,464
1509013119083,471
1509013119091,472
1509013119099,481
1509013119107,493
1509013119115,503
1509013119123,514
1509013119132,525
1509013119140,543
1509013119148,551
1509013119156,561
1509013119164,570
1509013119173,569
1509013119181,572
1509013119189,570
1509013119197,568
1509013119201,565
1509013119210,558
1509013119218,554
1509013119226,546
1509013119234,539
1509013119243,536
1509013119251,527
1509013119259,522
1509013119267,516
1509013119275,511
1509013119283,507
1509013119292,500
1509013119300,499
1509013119308,493
1509013119316,493
1509013119324,494
1509013119332,487
1509013119341,484
1509013119350,483
1509013119357,482
1509013119361,483
1509013119371,482
1509013119378,486
1509013119387,487
1509013119395,490
1509013119403,493
1509013119411,492
1509013119419,495
1509013119428,494
1509013119436,493
1509013119444,494
1509013119452,491
1509013119460,491
1509013119468,488
1509013119477,486
1509013119485,485
1509013119493,481
1509013119501,480
1509013119509,478
1509013119517,477
1509013119521,477
1509013119530,474
1509013119538,475
1509013119546,474
1509013119554,472
1509013119563,472
1509013119571,471
1509013119579,472
1509013119588,470
1509013119595,470
1509013119603,472
1509013119612,470
1509013119620,471
1509013119628,471
1509013119636,470
1509013119644,472
1509013119653,469
1509013119661,470
1509013119669,470
1509013119677,469
1509013119682,470
1509013119690,468
1509013119698,469
1509013119706,468
1509013119714,467
1509013119722,469
1509013119730,467
1509013119739,467
1509013119747,467
1509013119756,466
1509013119763,467
1509013119771,465
1509013119780,465
1509013119788,464
1509013119796,464
1509013119804,464
1509013119813,462
1509013119820,464
1509013119829,463
1509013119837,462
1509013119844,464
1509013119849,463
1509013119857,465
1509013119866,467
1509013119874,470
1509013119882,477
1509013119890,483
1509013119898,493
1509013119906,503
1509013119915,513
1509013119923,525
1509013119931,532
1509013119939,543
1509013119947,549
1509013119956,554
1509013119964,558
1509013119972,557
1509013119980,557
1509013119988,554
1509013119996,549
1509013120004,545
1509013120009,536
1509013120017,531
1509013120025,524
1509013120033,516
1509013120041,511
1509013120050,503
1509013120058,498
1509013120066,492
1509013120074,486
1509013120083,482
1509013120091,476
1509013120099,475
1509013120107,473
1509013120115,472
1509013120123,474
1509013120132,478
1509013120140,481
1509013120148,480
1509013120156,480
1509013120164,480
1509013120168,479
1509013120176,481
1509013120184,482
1509013120193,482
1509013120201,485
1509013120209,484
1509013120217,486
1509013120225,485
1509013120234,484
1509013120242,485
1509013120250,482
1509013120258,481
1509013120267,480
1509013120275,477
1509013120283,477
1509013120291,473
1509013120299,473
1509013120307,472
1509013120316,470
1509013120324,471
1509013120328,468
1509013120336,469
1509013120344,469
1509013120352,469
1509013120361,471
1509013120369,469
1509013120377,470
1509013120385,471
1509013120393,470
1509013120402,473
1509013120410,470
1509013120418,472
1509013120426,473
1509013120434,472
1509013120442,475
1509013120451,474
1509013120459,475
1509013120467,475
1509013120475,472
1509013120483,473
1509013120487,471
1509013120496,471
1509013120504,471
1509013120512,468
1509013120520,469
1509013120528,466
1509013120537,467
1509013120545,467
1509013120553,467
1509013120561,471
1509013120569,472
1509013120578,477
1509013120586,483
1509013120594,491
1509013120602,502
1509013120610,510
1509013120619,521
1509013120627,532
1509013120635,538
1509013120643,548
1509013120647,552
1509013120656,557
1509013120664,560
1509013120672,558
1509013120680,557
1509013120688,552
1509013120696,549
1509013120705,543
1509013120713,535
1509013120721,531
1509013120729,522
1509013120737,517
1509013120746,511
1509013120754,503
1509013120762,500
1509013120771,493
1509013120779,490
1509013120787,485
1509013120795,481
1509013120803,479
1509013120807,476
1509013120815,475
1509013120823,476
1509013120832,475
1509013120840,478
1509013120848,479
1509013120856,482
1509013120864,485
1509013120873,486
1509013120881,490
1509013120889,490
1509013120897,493
1509013120905,494
1509013120913,493
1509013120922,495
1509013120931,492
1509013120939,492
1509013120947,491
1509013120955,486
1509013120963,486
1509013120967,482
1509013120976,481
1509013120984,478
1509013120992,476
1509013121000,476
1509013121008,473
1509013121017,472
1509013121025,472
1509013121033,469
1509013121041,472
1509013121050,470
1509013121057,471
1509013121066,471
1509013121074,470
1509013121082,472
1509013121091,471
1509013121098,472
1509013121106,473
1509013121115,472
1509013121123,476
1509013121127,474
1509013121135,475
1509013121143,476
1509013121152,474
1509013121160,475
1509013121168,473
1509013121176,474
1509013121184,474
1509013121192,473
1509013121201,474
1509013121209,472
1509013121217,475
1509013121225,477
1509013121234,480
1509013121242,487
1509013121250,491
1509013121258,501
1509013121266,512
1509013121274,522
1509013121282,534
1509013121286,543
1509013121295,553
1509013121303,561
1509013121311,566
1509013121319,572
1509013121327,572
1509013121336,572
1509013121344,570
1509013121352,565
1509013121360,562
1509013121369,555
1509013121377,549
1509013121385,543
1509013121393,535
1509013121401,530
1509013121410,522
1509013121417,518
1509013121426,513
1509013121434,506
1509013121442,504
1509013121446,499
1509013121454,495
1509013121463,493
1509013121471,489
1509013121479,489
1509013121487,487
1509013121495,488
1509013121503,489
1509013121512,489
1509013121520,492
1509013121528,493
1509013121536,495
1509013121545,498
1509013121553,498
1509013121561,501
1509013121569,500
1509013121577,501
1509013121585,502
1509013121594,499
1509013121602,500
1509013121606,497
1509013121614,496
1509013121622,494
1509013121631,491
1509013121638,492
1509013121647,487
1509013121655,486
1509013121663,485
1509013121671,482
1509013121680,482
1509013121688,480
1509013121696,479
1509013121704,479
1509013121712,478
1509013121720,479
1509013121729,478
1509013121737,479
1509013121745,479
1509013121753,478
1509013121761,481
1509013121766,479
1509013121774,481
1509013121782,483
1509013121790,482
1509013121798,483
1509013121806,482
1509013121815,482
1509013121823,482
1509013121831,481
1509013121839,482
1509013121847,480
1509013121856,480
1509013121863,480
1509013121872,479
1509013121880,482
1509013121888,484
1509013121896,489
1509013121904,496
1509013121912,503
1509013121920,514
1509013121925,524
1509013121933,537
1509013121941,549
1509013121950,558
1509013121958,570
1509013121966,577
1509013121974,583
1509013121982,588
1509013121990,588
1509013121998,588
1509013122007,584
1509013122015,580
1509013122023,575
1509013122031,568
1509013122039,562
1509013122049,554
1509013122057,548
1509013122065,543
1509013122073,535
1509013122081,531
1509013122085,524
1509013122094,519
1509013122102,515
1509013122110,509
1509013122118,506
1509013122126,502
1509013122135,499
1509013122143,498
1509013122151,495
1509013122159,496
1509013122167,495
1509013122175,496
1509013122183,499
1509013122192,498
1509013122200,501
1509013122208,502
1509013122216,504
1509013122225,507
1509013122233,506
1509013122241,509
1509013122245,506
1509013122253,507
1509013122261,507
1509013122270,503
1509013122278,504
1509013122286,499
1509013122294,497
1509013122302,496
1509013122310,492
1509013122318,492
1509013122327,488
1509013122335,488
1509013122343,487
1509013122351,484
1509013122359,486
1509013122367,483
1509013122375,482
1509013122384,483
1509013122392,482
1509013122401,484
1509013122404,483
1509013122412,484
1509013122421,486
1509013122430,485
1509013122438,487
1509013122446,486
1509013122454,486
1509013122462,487
1509013122471,486
1509013122479,488
1509013122487,487
1509013122495,485
1509013122502,487
1509013122511,484
1509013122519,486
1509013122527,483
1509013122535,484
1509013122543,485
1509013122552,483
1509013122560,488
1509013122564,491
1509013122572,497
1509013122580,507
1509013122589,517
1509013122597,529
1509013122605,543
1509013122613,556
1509013122622,570
1509013122630,580
1509013122638,592
1509013122646,598
1509013122654,604
1509013122662,608
1509013122671,606
1509013122679,604
1509013122687,599
1509013122695,593
1509013122703,587
1509013122712,579
1509013122719,572
1509013122728,564
1509013122732,557
1509013122741,552
1509013122749,542
1509013122757,538
1509013122765,530
1509013122773,524
1509013122781,520
1509013122790,515
1509013122798,511
1509013122806,508
1509013122814,506
1509013122822,505
1509013122831,504
1509013122839,507
1509013122847,506
1509013122855,507
1509013122863,510
1509013122872,509
1509013122879,512
1509013122887,514
1509013122892,514
1509013122900,515
1509013122908,513
1509013122916,516
1509013122925,513
1509013122933,512
1509013122942,511
1509013122950,508
1509013122958,507
1509013122966,503
1509013122974,500
1509013122983,500
1509013122991,496
1509013122999,495
1509013123007,492
1509013123015,490
1509013123024,489
1509013123032,487
1509013123040,488
1509013123048,487
1509013123052,486
1509013123060,488
1509013123068,486
1509013123077,487
1509013123085,486
1509013123093,486
1509013123101,487
1509013123110,486
1509013123118,488
1509013123126,486
1509013123134,487
1509013123142,489
1509013123151,486
1509013123159,489
1509013123167,487
1509013123175,487
1509013123183,488
1509013123192,485
1509013123199,486
1509013123207,485
1509013123212,485
1509013123220,484
1509013123228,481
1509013123236,483
1509013123244,481
1509013123253,481
1509013123261,482
1509013123269,483
1509013123277,489
1509013123285,494
1509013123294,502
1509013123302,514
1509013123310,525
1509013123318,541
1509013123326,555
1509013123334,570
1509013123342,586
1509013123350,596
1509013123359,608
1509013123367,614
1509013123371,618
1509013123380,620
1509013123387,617
1509013123395,614
1509013123404,609
1509013123412,602
1509013123420,596
1509013123429,586
1509013123437,580
1509013123445,572
1509013123454,564
1509013123462,558
1509013123470,548
1509013123478,543
1509013123486,536
1509013123494,530
1509013123503,525
1509013123511,518
1509013123519,516
1509013123527,511
1509013123531,509
1509013123539,509
1509013123548,506
1509013123556,507
1509013123564,508
1509013123572,509
1509013123580,512
1509013123588,513
1509013123597,516
1509013123605,516
1509013123613,517
1509013123621,519
1509013123630,518
1509013123638,517
1509013123646,516
1509013123654,515
1509013123662,514
1509013123670,509
1509013123679,508
1509013123686,505
1509013123691,501
1509013123699,500
1509013123707,496
1509013123715,496
1509013123724,492
1509013123732,490
1509013123740,490
1509013123748,487
1509013123756,487
1509013123764,487
1509013123772,486
1509013123781,487
1509013123789,485
1509013123797,487
1509013123805,487
1509013123813,487
1509013123822,489
1509013123830,486
1509013123838,488
1509013123846,487
1509013123851,487
1509013123859,488
1509013123867,486
1509013123875,488
1509013123883,488
1509013123891,486
1509013123899,487
1509013123908,485
1509013123916,486
1509013123924,484
1509013123932,483
1509013123940,483
1509013123949,480
1509013123957,481
1509013123965,480
1509013123973,478
1509013123981,481
1509013123990,480
1509013123998,484
1509013124006,489
1509013124010,495
1509013124018,506
1509013124026,516
1509013124035,531
1509013124043,545
1509013124051,559
1509013124059,576
1509013124067,587
1509013124076,599
1509013124084,607
1509013124092,611
1509013124100,616
1509013124108,615
1509013124116,614
1509013124124,610
1509013124133,605
1509013124141,600
1509013124150,591
1509013124157,585
1509013124165,576
1509013124170,567
1509013124178,561
1509013124186,552
1509013124194,546
1509013124202,538
1509013124210,530
1509013124218,525
1509013124227,518
1509013124235,515
1509013124244,511
1509013124252,508
1509013124260,508
1509013124268,505
1509013124277,508
1509013124285,509
1509013124293,509
1509013124301,512
1509013124309,513
1509013124318,516
1509013124326,517
1509013124330,517
1509013124338,520
1509013124346,517
1509013124354,518
1509013124363,517
1509013124371,514
1509013124379,515
1509013124387,510
1509013124395,509
1509013124403,507
1509013124412,503
1509013124420,501
1509013124428,498
1509013124436,496
1509013124444,494
1509013124453,491
1509013124461,491
1509013124469,487
1509013124477,487
1509013124485,486
1509013124490,485
1509013124498,486
1509013124506,483
1509013124514,487
1509013124522,486
1509013124530,486
1509013124539,487
1509013124547,485
1509013124555,487
1509013124563,487
1509013124571,486
1509013124579,487
1509013124588,485
1509013124596,487
1509013124604,487
1509013124612,485
1509013124620,486
1509013124629,485
1509013124637,484
1509013124645,483
1509013124649,481
1509013124657,482
1509013124666,479
1509013124674,480
1509013124682,480
1509013124690,479
1509013124698,479
1509013124707,477
1509013124715,479
1509013124723,480
1509013124731,482
1509013124739,490
1509013124748,496
1509013124756,508
1509013124764,520
1509013124772,533
1509013124780,549
1509013124789,563
1509013124797,578
1509013124805,591
1509013124809,600
1509013124817,610
1509013124825,613
1509013124834,617
1509013124842,617
1509013124851,613
1509013124859,611
1509013124866,603
1509013124874,598
1509013124882,591
1509013124891,582
1509013124899,575
1509013124907,567
1509013124915,560
1509013124923,553
1509013124932,545
1509013124940,540
1509013124948,532
1509013124956,526
1509013124964,521
1509013124972,514
1509013124977,512
1509013124985,507
1509013124993,507
1509013125001,506
1509013125009,505
1509013125018,507
1509013125026,508
1509013125034,511
1509013125042,514
1509013125050,515
1509013125059,518
1509013125067,517
1509013125075,518
1509013125083,519
1509013125091,516
1509013125100,516
1509013125108,514
1509013125116,513
1509013125124,510
1509013125132,507
1509013125136,505
1509013125145,501
1509013125153,500
1509013125161,497
1509013125170,493
1509013125177,493
1509013125186,489
1509013125194,489
1509013125202,487
1509013125211,486
1509013125218,486
1509013125227,483
1509013125235,484
1509013125243,485
1509013125251,483
1509013125259,485
1509013125267,484
1509013125276,485
1509013125284,485
1509013125292,484
1509013125296,485
1509013125304,483
1509013125313,482
1509013125321,482
1509013125329,480
1509013125337,482
1509013125345,480
1509013125354,481
1509013125362,480
1509013125370,479
1509013125378,480
1509013125386,478
1509013125394,479
1509013125403,478
1509013125411,475
1509013125419,477
1509013125427,475
1509013125435,475
1509013125444,474
1509013125452,472
1509013125456,473
1509013125464,472
1509013125473,473
1509013125480,475
1509013125488,477
1509013125497,485
1509013125506,491
1509013125514,502
1509013125522,516
1509013125530,527
1509013125538,544
1509013125547,557
1509013125555,571
1509013125563,583
1509013125571,592
1509013125579,601
1509013125588,604
1509013125596,607
1509013125603,607
1509013125611,603
1509013125615,600
1509013125624,592
1509013125633,588
1509013125641,580
1509013125649,572
1509013125657,566
1509013125665,557
1509013125673,550
1509013125682,543
1509013125690,534
1509013125698,529
1509013125706,521
1509013125714,516
1509013125722,512
1509013125731,506
1509013125739,504
1509013125747,501
1509013125755,502
1509013125763,501
1509013125771,502
1509013125776,504
1509013125784,504
1509013125792,508
1509013125800,510
1509013125808,510
1509013125816,514
1509013125824,514
1509013125833,515
1509013125841,515
1509013125850,513
1509013125857,514
1509013125865,510
1509013125874,509
1509013125881,507
1509013125890,502
1509013125898,502
1509013125906,498
1509013125914,496
1509013125922,494
1509013125930,489
1509013125935,489
1509013125944,486
1509013125952,486
1509013125960,485
1509013125968,483
1509013125977,483
1509013125985,481
1509013125993,481
1509013126001,482
1509013126009,479
1509013126017,482
1509013126025,480
1509013126034,481
1509013126042,482
1509013126050,481
1509013126058,483
1509013126066,482
1509013126075,482
1509013126083,482
1509013126091,479
1509013126095,481
1509013126103,479
1509013126111,480
1509013126119,479
1509013126128,477
1509013126136,478
1509013126144,476
1509013126153,475
1509013126161,474
1509013126169,471
1509013126177,472
1509013126185,470
1509013126193,470
1509013126201,472
1509013126210,473
1509013126218,479
1509013126226,485
1509013126234,494
1509013126243,505
1509013126251,515
1509013126255,529
1509013126263,541
1509013126271,555
1509013126279,568
1509013126287,576
1509013126295,585
1509013126304,589
1509013126312,592
1509013126320,592
1509013126328,589
1509013126337,587
1509013126345,580
1509013126353,574
1509013126361,567
1509013126370,558
1509013126377,552
1509013126386,543
1509013126394,535
1509013126402,529
1509013126410,520
1509013126415,515
1509013126423,507
1509013126431,502
1509013126439,499
1509013126447,493
1509013126455,494
1509013126463,491
1509013126472,493
1509013126480,494
1509013126488,494
1509013126496,499
1509013126504,502
1509013126512,504
1509013126521,509
1509013126529,509
1509013126537,512
1509013126545,512
1509013126553,513
1509013126561,513
1509013126570,512
1509013126574,511
1509013126582,507
1509013126590,505
1509013126598,503
1509013126607,497
1509013126615,496
1509013126623,492
1509013126632,489
1509013126639,488
1509013126647,483
1509013126656,483
1509013126664,480
1509013126672,479
1509013126680,479
1509013126688,476
1509013126697,478
1509013126705,476
1509013126713,476
1509013126721,477
1509013126729,475
1509013126734,477
1509013126742,476
1509013126750,478
1509013126758,478
1509013126766,477
1509013126775,479
1509013126783,478
1509013126791,478
1509013126799,480
1509013126807,477
1509013126816,479
1509013126823,477
1509013126832,477
1509013126840,477
1509013126848,475
1509013126856,475
1509013126864,473
1509013126873,473
1509013126881,472
1509013126889,470
1509013126893,472
1509013126901,471
1509013126910,471
1509013126918,475
1509013126927,477
1509013126935,486
1509013126943,494
1509013126952,504
1509013126960,517
1509013126967,530
1509013126976,544
1509013126984,557
1509013126992,569
1509013127000,581
1509013127008,586
1509013127017,593
1509013127025,595
1509013127033,595
1509013127041,593
1509013127049,589
1509013127053,584
1509013127062,577
1509013127070,570
1509013127078,564
1509013127086,556
1509013127094,551
1509013127102,543
1509013127111,536
1509013127119,531
1509013127127,524
1509013127135,520
1509013127144,514
1509013127152,510
1509013127160,507
1509013127168,503
1509013127176,503
1509013127184,501
1509013127193,503
1509013127201,506
1509013127209,505
1509013127213,510
1509013127221,511
1509013127230,513
1509013127238,516
1509013127246,516
1509013127254,519
1509013127262,517
1509013127271,516
1509013127279,516
1509013127287,512
1509013127295,512
1509013127303,509
1509013127312,506
1509013127320,504
1509013127328,500
1509013127336,498
1509013127344,495
1509013127353,492
1509013127361,490
1509013127368,487
1509013127373,486
1509013127381,484
1509013127389,482
1509013127397,482
1509013127405,479
1509013127414,480
1509013127422,479
1509013127430,479
1509013127438,481
1509013127446,480
1509013127455,481
1509013127463,480
1509013127471,481
1509013127479,481
1509013127487,478
1509013127495,481
1509013127504,478
1509013127512,478
1509013127521,480
1509013127528,478
1509013127532,478
1509013127540,476
1509013127549,475
1509013127557,475
1509013127565,473
1509013127573,474
1509013127581,471
1509013127589,469
1509013127597,469
1509013127607,466
1509013127615,467
1509013127623,468
1509013127631,470
1509013127639,475
1509013127648,479
1509013127656,488
1509013127664,498
1509013127673,511
1509013127680,525
1509013127688,537
1509013127693,553
1509013127701,566
1509013127709,576
1509013127717,587
1509013127726,593
1509013127734,600
1509013127742,600
1509013127750,599
1509013127758,596
1509013127766,591
1509013127775,587
1509013127783,580
1509013127791,573
1509013127799,568
1509013127807,559
1509013127815,554
1509013127824,547
1509013127832,541
1509013127840,536
1509013127848,528
1509013127856,524
1509013127860,518
1509013127868,514
1509013127876,511
1509013127884,507
1509013127893,507
1509013127901,506
1509013127909,506
1509013127917,509
1509013127925,510
1509013127933,513
1509013127941,514
1509013127950,516
1509013127958,518
1509013127967,518
1509013127975,519
1509013127983,520
1509013127991,518
1509013128000,518
1509013128008,515
1509013128016,513
1509013128020,511
1509013128029,508
1509013128037,506
1509013128045,501
1509013128053,499
1509013128061,494
1509013128070,492
1509013128078,491
1509013128086,486
1509013128094,486
1509013128102,483
1509013128111,481
1509013128119,482
1509013128127,480
1509013128135,481
1509013128143,480
1509013128152,480
1509013128160,480
1509013128168,479
1509013128176,481
1509013128180,482
1509013128188,481
1509013128196,484
1509013128205,482
1509013128213,484
1509013128221,483
1509013128229,482
1509013128238,483
1509013128245,482
1509013128254,482
1509013128262,480
1509013128270,478
1509013128278,478
1509013128286,475
1509013128295,475
1509013128302,474
1509013128311,473
1509013128319,476
1509013128327,477
1509013128335,482
1509013128339,490
1509013128348,498
1509013128356,510
1509013128364,521
1509013128372,535
1509013128380,547
1509013128388,557
1509013128397,569
1509013128404,575
1509013128413,582
1509013128421,585
1509013128429,586
1509013128437,586
1509013128445,581
1509013128454,578
1509013128462,572
1509013128470,566
1509013128478,560
1509013128486,551
1509013128494,546
1509013128499,537
1509013128507,528
1509013128515,523
1509013128524,515
1509013128532,511
1509013128540,506
1509013128549,501
1509013128557,500
1509013128565,498
1509013128573,498
1509013128581,498
1509013128591,499
1509013128599,503
1509013128606,504
1509013128614,508
1509013128622,510
1509013128631,511
1509013128639,515
1509013128647,515
1509013128655,517
1509013128659,516
1509013128667,515
1509013128676,514
1509013128684,510
1509013128692,508
1509013128700,505
1509013128708,501
1509013128717,499
1509013128724,494
1509013128733,492
1509013128741,489
1509013128749,488
1509013128757,486
1509013128766,482
1509013128774,482
1509013128782,480
1509013128791,478
1509013128798,480
1509013128806,478
1509013128814,478
1509013128819,478
1509013128827,478
1509013128835,480
1509013128843,479
1509013128852,481
1509013128859,481
1509013128868,480
1509013128875,482
1509013128884,480
1509013128892,481
1509013128901,480
1509013128909,478
1509013128917,479
1509013128925,476
1509013128933,476
1509013128942,475
1509013128950,474
1509013128958,476
1509013128966,476
1509013128974,479
1509013128978,484
1509013128987,489
1509013128995,498
1509013129003,507
1509013129011,520
1509013129019,532
1509013129028,544
1509013129036,557
1509013129044,566
1509013129052,578
1509013129060,585
1509013129068,590
1509013129077,595
1509013129085,594
1509013129093,595
1509013129101,593
1509013129109,589
1509013129118,585
1509013129126,577
1509013129134,573
1509013129138,567
1509013129146,559
1509013129154,556
1509013129162,548
1509013129171,542
1509013129179,536
1509013129187,529
1509013129195,525
1509013129203,520
1509013129212,517
1509013129220,514
1509013129228,511
1509013129236,511
1509013129244,509
1509013129252,511
1509013129261,513
1509013129269,514
1509013129277,518
1509013129285,519
1509013129293,521
1509013129297,521
1509013129305,522
1509013129314,522
1509013129322,519
1509013129330,519
1509013129338,516
1509013129346,512
1509013129355,511
1509013129363,507
1509013129371,505
1509013129379,502
1509013129387,499
1509013129396,497
1509013129404,493
1509013129412,492
1509013129420,490
1509013129428,488
1509013129436,488
1509013129445,484
1509013129453,484
1509013129457,484
1509013129465,481
1509013129473,483
1509013129481,481
1509013129490,482
1509013129498,481
1509013129506,480
1509013129515,481
1509013129523,479
1509013129532,481
1509013129539,481
1509013129548,478
1509013129556,480
1509013129564,478
1509013129572,478
1509013129580,478
1509013129588,476
1509013129597,476
1509013129604,475
1509013129612,475
1509013129617,475
1509013129626,473
1509013129634,476
1509013129642,477
1509013129650,482
1509013129658,488
1509013129667,496
1509013129675,508
1509013129683,520
1509013129691,534
1509013129700,549
1509013129708,563
1509013129716,579
1509013129724,589
1509013129732,602
1509013129740,609
1509013129748,614
1509013129757,619
1509013129765,620
1509013129773,619
1509013129777,618
1509013129785,613
1509013129794,611
1509013129802,605
1509013129810,602
1509013129818,597
1509013129826,591
1509013129835,587
1509013129843,580
1509013129851,575
1509013129859,569
1509013129867,561
1509013129875,557
1509013129884,550
1509013129892,546
1509013129900,541
1509013129908,537
1509013129916,536
1509013129924,531
1509013129932,531
1509013129937,530
1509013129945,528
1509013129953,530
1509013129961,529
1509013129970,529
1509013129978,529
1509013129986,528
1509013129994,529
1509013130002,527
1509013130011,526
1509013130019,525
1509013130027,521
1509013130035,521
1509013130043,516
1509013130052,514
1509013130060,511
1509013130068,508
1509013130076,505
1509013130084,502
1509013130092,500
1509013130096,497
1509013130104,494
1509013130113,493
1509013130121,489
1509013130129,489
1509013130137,487
1509013130145,485
1509013130153,486
1509013130162,484
1509013130170,484
1509013130178,485
1509013130186,483
1509013130194,484
1509013130203,482
1509013130211,482
1509013130219,482
1509013130227,480
1509013130235,481
1509013130244,479
1509013130252,478
1509013130260,478
1509013130264,477
1509013130272,478
1509013130280,474
1509013130288,474
1509013130296,474
1509013130305,472
1509013130313,472
1509013130321,469
1509013130329,469
1509013130338,469
1509013130346,468
1509013130354,471
1509013130362,472
1509013130370,477
1509013130378,484
1509013130387,492
1509013130396,505
1509013130404,516
1509013130412,532
1509013130420,548
1509013130424,563
1509013130433,579
1509013130441,591
1509013130449,604
1509013130457,614
1509013130465,619
1509013130473,625
1509013130482,627
1509013130490,628
1509013130498,627
1509013130506,625
1509013130514,623
1509013130523,617
1509013130531,613
1509013130539,610
1509013130547,603
1509013130555,599
1509013130563,593
1509013130572,587
1509013130580,581
1509013130584,573
1509013130592,567
1509013130600,559
1509013130608,553
1509013130616,548
1509013130624,541
1509013130633,538
1509013130641,534
1509013130649,531
1509013130657,530
1509013130665,527
1509013130673,528
1509013130683,525
1509013130691,526
1509013130699,526
1509013130707,524
1509013130716,525
1509013130723,522
1509013130732,520
1509013130740,518
1509013130744,514
1509013130753,512
1509013130761,508
1509013130769,506
1509013130777,504
1509013130785,500
1509013130793,498
1509013130801,494
1509013130810,493
1509013130818,490
1509013130826,487
1509013130834,488
1509013130842,484
1509013130851,483
1509013130859,482
1509013130867,480
1509013130875,480
1509013130883,477
1509013130892,477
1509013130899,477
1509013130904,475
1509013130913,476
1509013130920,475
1509013130928,475
1509013130937,477
1509013130945,474
1509013130953,476
1509013130961,475
1509013130969,474
1509013130977,474
1509013130985,472
1509013130994,472
1509013131002,469
1509013131010,467
1509013131018,467
1509013131026,464
1509013131035,464
1509013131043,462
1509013131051,461
1509013131059,462
1509013131063,459
1509013131072,461
1509013131079,460
1509013131088,460
1509013131096,460
1509013131104,459
1509013131112,460
1509013131121,458
1509013131129,459
1509013131137,460
1509013131145,457
1509013131153,458
1509013131161,458
1509013131170,458
1509013131178,460
1509013131186,460
1509013131194,465
1509013131202,468
1509013131210,477
1509013131218,487
1509013131223,498
1509013131231,514
1509013131239,528
1509013131247,544
1509013131256,561
1509013131264,572
1509013131272,586
1509013131280,595
1509013131288,603
1509013131296,607
1509013131305,608
1509013131313,610
1509013131322,607
1509013131330,605
1509013131338,601
1509013131346,595
1509013131355,591
1509013131363,585
1509013131371,580
1509013131379,575
1509013131383,569
1509013131391,564
1509013131399,556
1509013131407,551
1509013131416,545
1509013131424,538
1509013131432,536
1509013131440,528
1509013131448,525
1509013131457,522
1509013131465,517
1509013131473,516
1509013131481,514
1509013131489,513
1509013131497,515
1509013131506,513
1509013131514,515
1509013131522,513
1509013131530,513
1509013131538,514
1509013131542,511
1509013131551,511
1509013131559,509
1509013131567,508
1509013131575,507
1509013131583,504
1509013131592,503
1509013131600,499
1509013131608,496
1509013131616,494
1509013131624,490
1509013131633,488
1509013131641,485
1509013131649,483
1509013131657,482
1509013131666,479
1509013131673,479
1509013131682,477
1509013131690,476
1509013131698,475
1509013131702,472
1509013131711,473
1509013131719,471
1509013131727,470
1509013131735,471
1509013131743,470
1509013131751,471
1509013131759,470
1509013131767,469
1509013131776,470
1509013131784,468
1509013131792,470
1509013131800,468
1509013131808,468
1509013131816,468
1509013131825,466
1509013131833,467
1509013131841,466
1509013131850,464
1509013131857,465
1509013131861,463
1509013131870,464
1509013131878,463
1509013131886,462
1509013131894,463
1509013131902,461
1509013131911,462
1509013131919,460
1509013131927,460
1509013131935,461
1509013131944,458
1509013131952,459
1509013131960,457
1509013131968,456
1509013131976,456
1509013131984,456
1509013131992,457
1509013132001,456
1509013132009,457
1509013132017,460
1509013132021,462
1509013132029,470
1509013132038,476
1509013132046,486
1509013132054,498
1509013132062,509
1509013132070,524
1509013132078,537
1509013132087,549
1509013132095,560
1509013132104,567
1509013132112,575
1509013132120,576
1509013132128,577
1509013132137,576
1509013132145,571
1509013132153,566
1509013132161,559
1509013132169,551
1509013132177,545
1509013132182,537
1509013132190,530
1509013132198,522
1509013132206,514
1509013132214,509
1509013132222,501
1509013132231,498
1509013132239,493
1509013132247,489
1509013132255,488
1509013132263,483
1509013132271,484
1509013132279,484
1509013132288,485
1509013132296,488
1509013132304,489
1509013132312,494
1509013132320,495
1509013132329,497
1509013132337,501
1509013132341,500
1509013132350,503
1509013132358,504
1509013132366,504
1509013132374,504
1509013132382,499
1509013132390,497
1509013132398,492
1509013132406,489
1509013132415,487
1509013132423,481
1509013132431,480
1509013132439,476
1509013132447,473
1509013132456,472
1509013132464,468
1509013132472,468
1509013132480,466
1509013132489,466
1509013132497,466
1509013132501,465
1509013132510,467
1509013132517,466
1509013132525,466
1509013132533,469
1509013132541,467
1509013132550,469
1509013132558,470
1509013132566,469
1509013132574,471
1509013132583,470
1509013132591,471
1509013132599,470
1509013132607,469
1509013132616,471
1509013132624,468
1509013132632,470
1509013132640,469
1509013132648,466
1509013132656,467
1509013132664,465
1509013132669,464
1509013132677,464
1509013132685,462
1509013132693,464
1509013132701,461
1509013132709,462
1509013132718,462
1509013132726,464
1509013132734,467
1509013132742,469
1509013132750,476
1509013132758,482
1509013132767,491
1509013132775,502
1509013132784,511
1509013132791,523
1509013132800,533
1509013132808,542
1509013132816,552
1509013132824,555
1509013132828,560
1509013132837,562
1509013132845,560
1509013132853,559
1509013132861,554
1509013132870,550
1509013132878,543
1509013132886,535
1509013132894,530
1509013132902,521
1509013132910,514
1509013132918,507
1509013132927,499
1509013132935,494
1509013132943,487
1509013132952,483
1509013132960,478
1509013132968,475
1509013132976,474
1509013132984,472
1509013132988,474
1509013132996,476
1509013133005,477
1509013133013,481
1509013133021,483
1509013133029,488
1509013133037,491
1509013133045,493
1509013133054,497
1509013133062,495
1509013133070,497
1509013133078,496
1509013133086,495
1509013133095,495
1509013133103,491
1509013133111,490
1509013133119,487
1509013133127,483
1509013133135,482
1509013133143,478
1509013133148,477
1509013133156,474
1509013133164,471
1509013133172,472
1509013133180,469
1509013133188,469
1509013133197,468
1509013133205,467
1509013133213,469
1509013133221,468
1509013133230,470
1509013133238,469
1509013133246,469
1509013133254,471
1509013133262,469
1509013133271,471
1509013133279,471
1509013133287,471
1509013133295,473
1509013133303,471
1509013133307,471
1509013133316,470
1509013133324,470
1509013133333,469
1509013133341,467
1509013133349,469
1509013133357,469
1509013133365,469
1509013133373,472
1509013133381,473
1509013133390,479
1509013133398,485
1509013133406,492
1509013133414,503
1509013133422,512
1509013133430,524
1509013133439,535
1509013133447,545
1509013133455,554
1509013133463,560
1509013133468,566
1509013133476,568
1509013133484,568
1509013133492,569
1509013133500,563
1509013133508,559
1509013133517,554
1509013133524,547
1509013133532,541
1509013133541,532
1509013133549,527
1509013133558,520
1509013133566,512
1509013133574,508
1509013133583,500
1509013133591,497
1509013133599,493
1509013133607,487
1509013133615,485
1509013133623,481
1509013133628,482
1509013133636,481
1509013133644,481
1509013133652,484
1509013133660,486
1509013133668,489
1509013133677,492
1509013133685,494
1509013133693,499
1509013133701,499
1509013133709,501
1509013133718,501
1509013133726,501
1509013133734,502
1509013133742,499
1509013133751,499
1509013133759,496
1509013133767,493
1509013133775,492
1509013133783,487
1509013133788,486
1509013133795,484
1509013133804,481
1509013133812,481
1509013133820,477
1509013133829,477
1509013133836,475
1509013133845,474
1509013133853,474
1509013133861,473
1509013133869,474
1509013133877,474
1509013133885,472
1509013133894,475
1509013133902,473
1509013133910,474
1509013133918,474
1509013133926,473
1509013133934,475
1509013133942,473
1509013133946,475
1509013133955,474
1509013133963,473
1509013133971,474
1509013133979,471
1509013133988,472
1509013133996,473
1509013134004,471
1509013134012,474
1509013134020,476
1509013134028,482
1509013134037,488
1509013134044,496
1509013134053,507
1509013134061,517
1509013134069,529
1509013134077,542
1509013134085,552
1509013134094,563
1509013134102,570
1509013134106,578
1509013134114,582
1509013134122,583
1509013134131,585
1509013134139,580
1509013134147,578
1509013134155,573
1509013134163,567
1509013134171,564
1509013134180,556
1509013134188,551
1509013134196,546
1509013134204,539
1509013134212,535
1509013134220,529
1509013134229,524
1509013134237,519
1509013134245,514
1509013134253,511
1509013134261,506
1509013134265,505
1509013134274,503
1509013134282,500
1509013134290,502
1509013134298,507
1509013134306,508
1509013134315,510
1509013134323,511
1509013134332,513
1509013134339,515
1509013134348,518
1509013134356,516
1509013134364,513
1509013134372,514
1509013134380,510
1509013134388,509
1509013134397,507
1509013134405,502
1509013134413,503
1509013134422,498
1509013134426,496
1509013134434,492
1509013134442,492
1509013134451,493
1509013134459,489
1509013134467,488
1509013134475,488
1509013134483,484
1509013134492,484
1509013134500,477
1509013134508,474
1509013134516,474
1509013134524,472
1509013134533,473
1509013134541,472
1509013134549,473
1509013134557,473
1509013134565,473
1509013134573,476
1509013134581,475
1509013134586,476
1509013134594,477
1509013134602,477
1509013134610,480
1509013134618,480
1509013134627,481
1509013134635,481
1509013134643,480
1509013134652,481
1509013134660,478
1509013134668,478
1509013134676,478
1509013134684,476
1509013134692,477
1509013134700,475
1509013134708,475
1509013134717,477
1509013134725,477
1509013134733,481
1509013134742,485
1509013134745,494
1509013134753,503
1509013134762,514
1509013134770,531
1509013134778,547
1509013134786,557
1509013134795,569
1509013134802,578
1509013134811,588
1509013134819,593
1509013134827,598
1509013134835,599
1509013134843,599
1509013134852,599
1509013134860,593
1509013134868,590
1509013134876,585
1509013134884,578
1509013134892,575
1509013134900,567
1509013134904,562
1509013134913,558
1509013134921,551
1509013134929,547
1509013134937,541
1509013134945,537
1509013134953,532
1509013134962,526
1509013134970,525
1509013134978,520
1509013134986,518
1509013134994,518
1509013135003,515
1509013135011,517
1509013135019,517
1509013135027,519
1509013135035,520
1509013135044,520
1509013135052,523
1509013135060,524
1509013135068,525
1509013135072,524
1509013135080,523
1509013135089,524
1509013135097,520
1509013135105,523
1509013135113,524
1509013135121,519
1509013135130,516
1509013135138,512
1509013135146,508
1509013135154,507
1509013135162,505
1509013135170,505
1509013135179,499
1509013135188,501
1509013135196,500
1509013135204,495
1509013135213,494
1509013135221,490
1509013135228,488
1509013135233,487
1509013135241,483
1509013135249,484
1509013135257,482
1509013135265,483
1509013135274,484
1509013135281,482
1509013135289,482
1509013135298,480
1509013135306,481
1509013135314,482
1509013135323,480
1509013135332,482
1509013135340,480
1509013135348,480
1509013135356,482
1509013135364,480
1509013135372,481
1509013135380,479
1509013135388,479
1509013135393,480
1509013135401,477
1509013135409,478
1509013135417,477
1509013135425,477
1509013135434,479
1509013135442,480
1509013135450,485
1509013135458,489
1509013135466,496
1509013135475,507
1509013135482,516
1509013135490,531
1509013135499,544
1509013135507,558
1509013135515,573
1509013135523,582
1509013135532,591
1509013135539,596
1509013135547,599
1509013135552,601
1509013135560,599
1509013135568,596
1509013135576,591
1509013135585,586
1509013135593,581
1509013135601,572
1509013135609,567
1509013135617,559
1509013135626,553
1509013135634,547
1509013135642,540
1509013135651,535
1509013135659,528
1509013135667,524
1509013135675,521
1509013135683,516
1509013135691,516
1509013135699,514
1509013135707,514
1509013135711,515
1509013135719,514
1509013135728,516
1509013135736,517
1509013135744,521
1509013135752,522
1509013135761,522
1509013135770,525
1509013135778,525
1509013135786,523
1509013135794,524
1509013135802,521
1509013135811,520
1509013135819,516
1509013135827,513
1509013135835,513
1509013135843,509
1509013135852,505
1509013135860,500
1509013135867,496
1509013135871,494
1509013135879,489
1509013135888,489
1509013135897,488
1509013135905,485
1509013135913,487
1509013135921,488
1509013135929,489
1509013135938,485
1509013135946,489
1509013135954,491
1509013135962,486
1509013135970,488
1509013135978,482
1509013135986,480
1509013135995,480
1509013136003,478
1509013136011,480
1509013136019,478
1509013136027,478
1509013136031,479
1509013136040,476
1509013136048,477
1509013136056,476
1509013136064,477
1509013136072,478
1509013136080,476
1509013136088,477
1509013136097,477
1509013136105,479
1509013136113,483
1509013136121,486
1509013136129,494
1509013136138,501
1509013136146,512
1509013136154,525
1509013136162,536
1509013136170,551
1509013136178,562
1509013136186,573
1509013136191,585
1509013136199,591
1509013136207,597
1509013136215,601
1509013136223,602
1509013136231,603
1509013136240,598
1509013136248,597
1509013136256,591
1509013136264,585
1509013136272,581
1509013136281,572
1509013136289,567
1509013136297,559
1509013136306,552
1509013136314,545
1509013136322,537
1509013136330,532
1509013136338,525
1509013136346,520
1509013136351,517
1509013136359,512
1509013136367,513
1509013136375,511
1509013136383,511
1509013136391,514
1509013136399,513
1509013136408,515
1509013136416,515
1509013136424,516
1509013136432,520
1509013136440,517
1509013136449,518
1509013136457,517
1509013136465,515
1509013136473,517
1509013136481,513
1509013136489,512
1509013136498,507
1509013136506,504
1509013136510,503
1509013136518,497
1509013136526,496
1509013136535,493
1509013136543,490
1509013136551,489
1509013136559,487
1509013136567,486
1509013136575,483
1509013136584,482
1509013136592,482
1509013136600,479
1509013136608,481
1509013136616,480
1509013136624,480
1509013136633,481
1509013136641,479
1509013136649,480
1509013136657,480
1509013136665,479
1509013136670,480
1509013136678,478
1509013136686,480
1509013136694,479
1509013136702,478
1509013136711,479
1509013136719,475
1509013136727,477
1509013136735,476
1509013136744,474
1509013136752,474
1509013136761,473
1509013136769,473
1509013136777,472
1509013136785,472
1509013136793,476
1509013136801,476
1509013136810,484
1509013136818,491
1509013136826,500
1509013136830,514
1509013136838,526
1509013136847,542
1509013136855,556
1509013136863,570
1509013136872,584
1509013136879,593
1509013136887,604
1509013136896,609
1509013136904,613
1509013136912,617
1509013136920,614
1509013136928,614
1509013136936,612
1509013136944,607
1509013136952,604
1509013136961,598
1509013136970,594
1509013136978,588
1509013136986,582
1509013136990,578
1509013136998,569
1509013137006,565
1509013137014,558
1509013137022,551
1509013137031,546
1509013137039,538
1509013137047,535
1509013137055,532
1509013137063,528
1509013137072,527
1509013137080,524
1509013137088,525
1509013137097,525
1509013137104,524
1509013137113,526
1509013137121,523
1509013137129,524
1509013137137,524
1509013137145,522
1509013137150,521
1509013137158,519
1509013137166,518
1509013137174,515
1509013137182,513
1509013137190,511
1509013137198,505
1509013137206,505
1509013137215,501
1509013137223,497
1509013137231,496
1509013137239,491
1509013137248,490
1509013137256,488
1509013137264,486
1509013137272,487
1509013137280,484
1509013137288,485
1509013137297,483
1509013137305,482
1509013137309,483
1509013137317,481
1509013137325,481
1509013137333,481
1509013137342,480
1509013137350,481
1509013137358,478
1509013137366,479
1509013137374,478
1509013137382,477
1509013137391,478
1509013137399,476
1509013137408,477
1509013137416,476
1509013137424,474
1509013137433,475
1509013137441,473
1509013137449,473
1509013137457,472
1509013137465,471
1509013137473,471
1509013137478,469
1509013137486,470
1509013137494,469
1509013137502,467
1509013137510,468
1509013137518,465
1509013137526,466
1509013137535,466
1509013137542,464
1509013137551,465
1509013137559,465
1509013137567,469
1509013137575,473
1509013137584,480
1509013137592,492
1509013137600,501
1509013137608,516
1509013137616,532
1509013137624,547
1509013137632,565
1509013137637,578
1509013137645,592
1509013137653,602
1509013137661,609
1509013137670,617
1509013137677,619
1509013137686,622
1509013137694,622
1509013137702,619
1509013137710,618
1509013137719,612
1509013137727,609
1509013137736,606
1509013137744,599
1509013137752,596
1509013137760,589
1509013137769,585
1509013137776,577
1509013137784,571
1509013137792,569
1509013137796,559
1509013137804,553
1509013137813,548
1509013137821,541
1509013137829,539
1509013137837,533
1509013137845,532
1509013137854,530
1509013137862,527
1509013137870,528
1509013137878,525
1509013137886,528
1509013137894,527
1509013137903,525
1509013137911,526
1509013137919,522
1509013137927,522
1509013137936,520
1509013137944,517
1509013137952,515
1509013137956,511
1509013137964,509
1509013137972,506
1509013137981,502
1509013137989,501
1509013137998,496
1509013138006,494
1509013138014,492
1509013138022,488
1509013138030,489
1509013138039,485
1509013138047,484
1509013138055,482
1509013138063,480
1509013138071,480
1509013138079,478
1509013138088,479
1509013138096,478
1509013138104,476
1509013138112,478
1509013138116,475
1509013138124,476
1509013138132,476
1509013138141,474
1509013138149,475
1509013138157,473
1509013138165,473
1509013138174,473
1509013138182,471
1509013138190,472
1509013138198,470
1509013138206,470
1509013138214,469
1509013138222,468
1509013138231,469
1509013138239,466
1509013138247,467
1509013138255,467
1509013138263,466
1509013138271,466
1509013138276,464
1509013138284,464
1509013138292,464
1509013138300,461
1509013138308,462
1509013138317,459
1509013138325,460
1509013138333,460
1509013138341,458
1509013138350,459
1509013138358,458
1509013138366,459
1509013138374,459
1509013138382,460
1509013138390,464
1509013138398,467
1509013138407,476
1509013138415,485
1509013138423,495
1509013138431,510
1509013138435,522
1509013138443,538
1509013138452,553
1509013138460,565
1509013138468,578
1509013138476,586
1509013138485,594
1509013138493,600
1509013138501,601
1509013138509,605
1509013138518,602
1509013138525,600
1509013138533,598
1509013138542,592
1509013138550,589
1509013138558,584
1509013138566,580
1509013138575,575
1509013138583,569
1509013138591,566
1509013138595,558
1509013138603,553
1509013138612,547
1509013138619,540
1509013138628,536
1509013138636,530
1509013138644,527
1509013138652,524
1509013138660,522
1509013138669,520
1509013138678,517
1509013138685,517
1509013138693,516
1509013138702,515
1509013138710,516
1509013138719,515
1509013138727,516
1509013138735,515
1509013138743,513
1509013138751,513
1509013138755,510
1509013138764,509
1509013138772,507
1509013138780,503
1509013138788,502
1509013138796,498
1509013138804,496
1509013138813,494
1509013138821,490
1509013138829,490
1509013138837,487
1509013138845,484
1509013138854,483
1509013138862,480
1509013138871,480
1509013138878,477
1509013138886,478
1509013138895,478
1509013138903,476
1509013138911,476
1509013138915,474
1509013138923,473
1509013138932,474
1509013138940,471
1509013138948,472
1509013138956,471
1509013138964,471
1509013138973,471
1509013138981,470
1509013138989,470
1509013138997,468
1509013139005,469
1509013139013,469
1509013139021,467
1509013139030,468
1509013139038,466
1509013139046,466
1509013139054,466
1509013139062,464
1509013139070,465
1509013139075,462
1509013139083,463
1509013139091,464
1509013139099,461
1509013139107,463
1509013139115,461
1509013139123,461
1509013139132,461
1509013139140,459
1509013139148,460
1509013139157,459
1509013139165,458
1509013139173,459
1509013139181,457
1509013139189,459
1509013139197,457
1509013139206,459
1509013139214,462
1509013139222,466
1509013139230,475
1509013139234,483
1509013139242,494
1509013139250,507
1509013139259,518
1509013139267,532
1509013139275,542
1509013139283,555
1509013139292,563
1509013139299,568
1509013139308,574
1509013139316,574
1509013139324,574
1509013139332,573
1509013139341,567
1509013139349,563
1509013139357,557
1509013139365,552
1509013139374,546
1509013139382,539
1509013139390,534
1509013139394,527
1509013139402,522
1509013139410,518
1509013139419,510
1509013139426,507
1509013139435,502
1509013139443,498
1509013139451,496
1509013139459,493
1509013139467,494
1509013139476,493
1509013139484,495
1509013139492,498
1509013139500,497
1509013139508,501
1509013139517,502
1509013139525,504
1509013139533,506
1509013139541,504
1509013139549,507
1509013139553,504
1509013139562,503
1509013139570,501
1509013139578,497
1509013139586,497
1509013139594,493
1509013139602,491
1509013139611,489
1509013139619,484
1509013139627,484
1509013139635,481
1509013139643,478
1509013139652,477
1509013139660,474
1509013139668,474
1509013139676,472
1509013139684,472
1509013139692,472
1509013139700,470
1509013139709,472
1509013139713,470
1509013139721,470
1509013139729,472
1509013139737,471
1509013139745,472
1509013139754,472
1509013139762,471
1509013139770,473
1509013139778,471
1509013139786,472
1509013139795,470
1509013139803,470
1509013139811,471
1509013139819,469
1509013139827,470
1509013139836,469
1509013139844,468
1509013139852,468
1509013139861,465
1509013139869,465
1509013139873,463
1509013139882,463
1509013139890,464
1509013139898,462
1509013139906,465
1509013139914,468
1509013139923,471
1509013139931,478
1509013139939,483
1509013139947,494
1509013139955,503
1509013139963,513
1509013139972,525
1509013139980,534
1509013139988,545
1509013139996,551
1509013140004,557
1509013140013,562
1509013140021,562
1509013140029,562
1509013140033,559
1509013140041,555
1509013140049,551
1509013140057,544
1509013140066,540
1509013140074,532
1509013140082,526
1509013140090,520
1509013140098,512
1509013140107,508
1509013140115,501
1509013140123,496
1509013140131,494
1509013140139,488
1509013140147,487
1509013140156,485
1509013140164,484
1509013140172,486
1509013140180,486
1509013140188,489
1509013140193,491
1509013140201,493
1509013140209,497
1509013140217,497
1509013140225,501
1509013140233,501
1509013140242,502
1509013140250,503
1509013140258,500
1509013140266,500
1509013140274,497
1509013140282,494
1509013140291,492
1509013140299,488
1509013140307,486
1509013140315,483
1509013140324,480
1509013140332,480
1509013140340,476
1509013140348,476
1509013140356,473
1509013140360,472
1509013140368,472
1509013140377,469
1509013140385,469
1509013140393,469
1509013140401,469
1509013140410,471
1509013140418,469
1509013140426,470
1509013140434,470
1509013140442,470
1509013140450,472
1509013140458,470
1509013140467,471
1509013140475,472
1509013140483,471
1509013140491,471
1509013140499,469
1509013140507,471
1509013140516,470
1509013140520,469
1509013140528,468
1509013140536,465
1509013140544,467
1509013140553,466
1509013140561,467
1509013140569,471
1509013140577,472
1509013140585,480
1509013140594,487
1509013140602,496
1509013140610,508
1509013140618,518
1509013140626,531
1509013140635,541
1509013140643,551
1509013140651,563
1509013140659,567
1509013140667,574
1509013140676,575
1509013140679,575
1509013140688,574
1509013140696,569
1509013140704,567
1509013140712,562
1509013140720,557
1509013140728,553
1509013140738,546
1509013140746,543
1509013140754,538
1509013140762,532
1509013140770,529
1509013140779,522
1509013140787,520
1509013140795,515
1509013140803,511
1509013140812,509
1509013140819,505
1509013140828,504
1509013140836,503
1509013140840,502
1509013140848,504
1509013140856,503
1509013140865,506
1509013140873,507
1509013140881,508
1509013140889,511
1509013140897,509
1509013140905,511
1509013140914,510
1509013140922,509
1509013140930,509
1509013140938,506
1509013140946,506
1509013140954,504
1509013140962,500
1509013140971,498
1509013140979,494
1509013140987,493
1509013140995,490
1509013140999,486
1509013141007,486
1509013141016,481
1509013141024,482
1509013141032,479
1509013141040,477
1509013141049,478
1509013141057,475
1509013141064,476
1509013141073,476
1509013141081,475
1509013141090,476
1509013141097,474
1509013141106,475
1509013141114,475
1509013141123,475
1509013141131,476
1509013141139,474
1509013141147,475
1509013141155,474
1509013141159,473
1509013141167,474
1509013141176,472
1509013141183,473
1509013141191,472
1509013141199,471
1509013141208,473
1509013141216,472
1509013141224,476
1509013141232,479
1509013141240,483
1509013141249,491
1509013141257,498
1509013141265,510
1509013141273,521
1509013141281,533
1509013141291,546
1509013141299,557
1509013141307,568
1509013141315,576
1509013141319,582
1509013141327,589
1509013141336,590
1509013141344,592
1509013141352,590
1509013141360,588
1509013141368,586
1509013141377,579
1509013141385,577
1509013141393,572
1509013141401,566
1509013141410,563
1509013141417,556
1509013141426,553
1509013141434,547
1509013141442,541
1509013141450,537
1509013141458,532
1509013141466,528
1509013141475,525
1509013141479,521
1509013141487,520
1509013141495,516
1509013141504,517
1509013141512,515
1509013141520,514
1509013141528,516
1509013141536,515
1509013141545,516
1509013141553,517
1509013141561,516
1509013141569,518
1509013141577,516
1509013141585,516
1509013141593,514
1509013141602,512
1509013141610,512
1509013141618,507
1509013141626,505
1509013141634,503
1509013141638,499
1509013141647,499
1509013141655,494
1509013141663,492
1509013141672,490
1509013141680,487
1509013141688,487
1509013141696,484
1509013141704,484
1509013141712,483
1509013141720,482
1509013141729,483
1509013141737,481
1509013141745,481
1509013141754,480
1509013141762,479
1509013141770,481
1509013141778,479
1509013141786,480
1509013141794,479
1509013141798,477
1509013141806,478
1509013141815,476
1509013141823,477
1509013141831,477
1509013141839,474
1509013141847,476
1509013141855,474
1509013141863,476
1509013141872,477
1509013141880,477
1509013141888,484
1509013141896,487
1509013141904,497
1509013141912,507
1509013141920,516
1509013141929,532
1509013141937,544
1509013141945,556
1509013141953,569
1509013141957,577
1509013141966,586
1509013141974,590
1509013141982,596
1509013141990,597
1509013141999,596
1509013142007,595
1509013142015,591
1509013142024,589
1509013142032,584
1509013142040,579
1509013142048,575
1509013142057,568
1509013142064,564
1509013142073,558
1509013142081,551
1509013142089,547
1509013142097,539
1509013142105,536
1509013142113,531
1509013142118,526
1509013142126,524
1509013142134,521
1509013142142,519
1509013142151,519
1509013142159,518
1509013142167,520
1509013142175,518
1509013142183,520
1509013142192,521
1509013142200,520
1509013142208,522
1509013142216,520
1509013142224,520
1509013142233,518
1509013142241,515
1509013142249,515
1509013142257,510
1509013142265,509
1509013142273,506
1509013142278,502
1509013142286,501
1509013142294,496
1509013142302,494
1509013142310,493
1509013142318,490
1509013142326,490
1509013142335,487
1509013142343,487
1509013142352,486
1509013142359,483
1509013142367,485
1509013142376,483
1509013142384,482
1509013142392,482
1509013142401,481
1509013142409,483
1509013142417,480
1509013142425,480
1509013142433,480
1509013142437,479
1509013142445,480
1509013142454,479
1509013142462,479
1509013142470,478
1509013142478,477
1509013142486,478
1509013142494,475
1509013142502,477
1509013142511,478
1509013142519,478
1509013142527,483
1509013142535,487
1509013142543,495
1509013142552,505
1509013142560,516
1509013142568,530
1509013142576,542
1509013142584,556
1509013142592,569
1509013142596,578
1509013142605,590
1509013142613,597
1509013142621,603
1509013142630,608
1509013142638,608
1509013142646,611
1509013142655,609
1509013142662,606
1509013142671,603
1509013142679,597
1509013142687,594
1509013142695,587
1509013142703,582
1509013142712,576
1509013142720,569
1509013142728,564
1509013142736,555
1509013142744,550
1509013142752,544
1509013142761,537
1509013142765,534
1509013142773,528
1509013142782,526
1509013142790,523
1509013142798,520
1509013142806,521
1509013142814,519
1509013142822,520
1509013142831,521
1509013142839,520
1509013142847,522
1509013142855,520
1509013142864,521
1509013142872,520
1509013142880,516
1509013142888,516
1509013142896,512
1509013142904,509
1509013142912,508
1509013142920,503
1509013142924,503
1509013142933,498
1509013142941,496
1509013142949,494
1509013142957,490
1509013142965,490
1509013142973,487
1509013142981,484
1509013142990,484
1509013142998,481
1509013143006,481
1509013143014,480
1509013143022,478
1509013143031,480
1509013143039,477
1509013143047,479
1509013143055,477
1509013143063,477
1509013143071,478
1509013143080,476
1509013143084,478
1509013143092,476
1509013143100,475
1509013143108,476
1509013143117,473
1509013143125,474
1509013143133,471
1509013143141,471
1509013143149,471
1509013143158,469
1509013143166,470
1509013143174,468
1509013143182,468
1509013143190,468
1509013143198,464
1509013143207,465
1509013143215,464
1509013143223,463
1509013143231,464
1509013143239,469
1509013143243,474
1509013143252,477
1509013143260,483
1509013143268,491
1509013143277,501
1509013143285,515
1509013143293,529
1509013143301,543
1509013143310,561
1509013143317,572
1509013143325,589
1509013143334,601
1509013143342,610
1509013143350,620
1509013143358,624
1509013143366,630
1509013143375,631
1509013143383,628
1509013143391,625
1509013143399,618
1509013143403,617
1509013143412,612
1509013143420,607
1509013143428,605
1509013143436,601
1509013143444,599
1509013143452,592
1509013143460,584
1509013143469,578
1509013143477,568
1509013143486,562
1509013143494,554
1509013143502,547
1509013143511,543
1509013143519,535
1509013143527,533
1509013143535,527
1509013143544,525
1509013143551,525
1509013143559,522
1509013143564,522
1509013143572,518
1509013143580,517
1509013143588,517
1509013143596,515
1509013143604,515
1509013143613,513
1509013143621,512
1509013143629,511
1509013143637,506
1509013143645,504
1509013143654,501
1509013143662,497
1509013143671,496
1509013143679,491
1509013143686,491
1509013143695,488
1509013143703,485
1509013143711,485
1509013143719,481
1509013143723,481
1509013143731,480
1509013143740,479
1509013143748,479
1509013143756,476
1509013143764,478
1509013143773,476
1509013143781,476
1509013143789,476
1509013143797,474
1509013143805,478
1509013143813,477
1509013143821,474
1509013143830,474
1509013143838,472
1509013143846,472
1509013143854,470
1509013143862,468
1509013143871,469
1509013143879,466
1509013143882,467
1509013143891,465
1509013143899,464
1509013143907,464
1509013143915,462
1509013143923,463
1509013143932,462
1509013143940,461
1509013143948,462
1509013143956,463
1509013143964,465
1509013143973,462
1509013143981,462
1509013143989,466
1509013143997,467
1509013144005,474
1509013144014,481
1509013144022,493
1509013144030,504
1509013144038,516
1509013144042,531
1509013144051,547
1509013144059,560
1509013144067,574
1509013144075,581
1509013144083,591
1509013144091,597
1509013144100,601
1509013144107,604
1509013144116,602
1509013144124,603
1509013144132,600
1509013144141,596
1509013144149,593
1509013144157,586
1509013144165,581
1509013144174,574
1509013144182,569
1509013144190,563
1509013144197,554
1509013144202,549
1509013144210,541
1509013144219,534
1509013144226,530
1509013144234,523
1509013144242,522
1509013144252,519
1509013144260,519
1509013144268,521
1509013144276,517
1509013144285,519
1509013144292,518
1509013144300,518
1509013144308,520
1509013144317,518
1509013144325,521
1509013144334,520
1509013144342,520
1509013144350,520
1509013144358,516
1509013144363,516
1509013144371,513
1509013144379,508
1509013144387,507
1509013144395,500
1509013144403,497
1509013144411,494
1509013144420,490
1509013144427,489
1509013144435,485
1509013144443,483
1509013144452,481
1509013144460,479
1509013144468,479
1509013144476,478
1509013144484,478
1509013144493,477
1509013144501,475
1509013144509,476
1509013144517,474
1509013144521,475
1509013144529,474
1509013144538,474
1509013144546,475
1509013144554,473
1509013144563,474
1509013144571,474
1509013144579,472
1509013144588,474
1509013144596,474
1509013144604,478
1509013144613,475
1509013144620,472
1509013144629,472
1509013144637,469
1509013144645,469
1509013144654,468
1509013144662,467
1509013144670,470
1509013144678,470
1509013144682,476
1509013144690,483
1509013144698,491
1509013144706,503
1509013144714,512
1509013144723,527
1509013144731,540
1509013144739,553
1509013144747,569
1509013144755,580
1509013144764,593
1509013144772,603
1509013144780,610
1509013144788,618
1509013144796,621
1509013144805,624
1509013144813,625
1509013144821,624
1509013144829,625
1509013144837,621
1509013144845,621
1509013144850,618
1509013144858,612
1509013144866,607
1509013144874,599
1509013144882,587
1509013144891,576
1509013144899,565
1509013144907,556
1509013144915,546
1509013144923,540
1509013144932,533
1509013144940,527
1509013144948,524
1509013144956,519
1509013144964,517
1509013144972,516
1509013144981,514
1509013144989,517
1509013144997,515
1509013145005,518
1509013145009,518
1509013145018,516
1509013145025,518
1509013145034,516
1509013145042,516
1509013145050,515
1509013145059,512
1509013145067,511
1509013145075,506
1509013145083,504
1509013145091,501
1509013145099,496
1509013145108,494
1509013145116,489
1509013145124,487
1509013145132,484
1509013145140,481
1509013145148,481
1509013145156,477
1509013145164,478
1509013145168,476
1509013145177,475
1509013145185,475
1509013145193,472
1509013145201,473
1509013145210,473
1509013145218,470
1509013145226,471
1509013145234,467
1509013145242,469
1509013145251,468
1509013145259,465
1509013145267,466
1509013145275,464
1509013145283,465
1509013145292,464
1509013145299,463
1509013145308,465
1509013145316,461
1509013145324,462
1509013145328,461
1509013145336,459
1509013145345,461
1509013145353,459
1509013145361,459
1509013145369,459
1509013145377,458
1509013145386,461
1509013145394,461
1509013145402,465
1509013145410,470
1509013145418,476
1509013145426,487
1509013145435,497
1509013145443,511
1509013145451,525
1509013145459,538
1509013145467,554
1509013145475,566
1509013145484,579
1509013145489,590
1509013145497,597
1509013145505,606
1509013145513,609
1509013145521,613
1509013145530,614
1509013145538,612
1509013145546,613
1509013145554,608
1509013145562,606
1509013145571,603
1509013145579,597
1509013145587,594
1509013145595,587
1509013145603,582
1509013145611,576
1509013145619,567
1509013145628,562
1509013145636,553
1509013145644,547
1509013145648,541
1509013145657,534
1509013145665,530
1509013145673,523
1509013145681,521
1509013145689,518
1509013145697,513
1509013145706,513
1509013145714,509
1509013145722,508
1509013145731,507
1509013145739,504
1509013145747,505
1509013145755,502
1509013145763,500
1509013145771,500
1509013145779,500
1509013145787,498
1509013145795,494
1509013145803,493
1509013145808,492
1509013145816,488
1509013145824,489
1509013145833,485
1509013145841,487
1509013145849,486
1509013145857,482
1509013145865,483
1509013145873,480
1509013145881,479
1509013145890,477
1509013145898,475
1509013145906,477
1509013145914,476
1509013145922,478
1509013145930,481
1509013145938,480
1509013145947,482
1509013145955,480
1509013145964,479
1509013145968,477
1509013145976,470
1509013145984,467
1509013145993,462
1509013146000,458
1509013146009,455
1509013146017,451
1509013146025,450
1509013146034,445
1509013146042,441
1509013146050,438
1509013146058,433
1509013146066,434
1509013146075,431
1509013146083,432
1509013146091,432
1509013146099,428
1509013146107,430
1509013146115,427
1509013146123,432
1509013146127,437
1509013146136,443
1509013146144,454
1509013146152,461
1509013146160,470
1509013146168,481
1509013146177,488
1509013146185,503
1509013146193,509
1509013146201,513
1509013146209,519
1509013146218,523
1509013146226,521
1509013146234,516
1509013146242,516
1509013146250,512
1509013146259,503
1509013146266,496
1509013146275,486
1509013146283,475
1509013146287,467
1509013146295,456
1509013146303,450
1509013146312,444
1509013146320,436
1509013146328,428
1509013146336,411
1509013146345,406
1509013146353,400
1509013146361,399
1509013146369,393
1509013146377,387
1509013146385,379
1509013146394,374
1509013146402,368
1509013146410,375
1509013146418,386
1509013146426,406
1509013146435,416
1509013146442,431
1509013146447,442
1509013146455,447
1509013146463,448
1509013146471,451
1509013146480,454
1509013146488,451
1509013146496,446
1509013146504,449
1509013146512,461
1509013146521,473
1509013146529,477
1509013146536,472
1509013146545,478
1509013146553,466
1509013146562,465
1509013146570,459
1509013146578,452
1509013146586,448
1509013146594,449
1509013146602,453
1509013146607,450
1509013146615,442
1509013146623,442
1509013146632,439
1509013146640,441
1509013146648,448
1509013146656,446
1509013146664,453
1509013146672,454
1509013146681,447
1509013146689,449
1509013146697,454
1509013146705,465
1509013146713,468
1509013146722,472
1509013146730,480
1509013146738,486
1509013146746,494
1509013146754,491
1509013146762,492
1509013146766,497
1509013146775,500
1509013146783,504
1509013146791,507
1509013146799,508
1509013146807,510
1509013146815,508
1509013146823,507
1509013146832,503
1509013146840,500
1509013146848,498
1509013146856,490
1509013146864,487
1509013146873,483
1509013146881,481
1509013146890,484
1509013146898,485
1509013146906,492
1509013146914,497
1509013146922,504
1509013146926,512
1509013146935,517
1509013146943,526
1509013146951,531
1509013146959,535
1509013146967,539
1509013146976,538
1509013146984,540
1509013146991,538
1509013147000,536
1509013147008,534
1509013147016,529
1509013147024,526
1509013147032,520
1509013147040,515
1509013147048,511
1509013147057,504
1509013147065,500
1509013147073,495
1509013147081,491
1509013147085,488
1509013147094,484
1509013147102,483
1509013147110,480
1509013147118,480
1509013147127,481
1509013147135,480
1509013147143,482
1509013147152,483
1509013147160,485
1509013147168,490
1509013147176,490
1509013147184,500
1509013147193,500
1509013147200,502
1509013147208,505
1509013147217,504
1509013147225,506
1509013147233,502
1509013147241,499
1509013147245,496
1509013147254,489
1509013147262,487
1509013147270,482
1509013147278,477
1509013147286,475
1509013147294,469
1509013147303,466
1509013147311,462
1509013147319,460
1509013147328,460
1509013147336,456
1509013147344,457
1509013147353,455
1509013147361,456
1509013147369,458
1509013147377,456
1509013147385,457
1509013147393,456
1509013147401,456
1509013147406,458
