time,value
1506653328159,7.399624004799762
1506653328167,-5.310040861357265
1506653328176,-18.554190685852518
1506653328184,-36.76907678948214
1506653328192,-40.8450995855589
1506653328200,-28.8450995855589
1506653328209,-2.8450995855588985
1506653328217,31.1549004144411
1506653328226,66.1549004144411
1506653328234,117.1549004144411
1506653328242,162.1549004144411
1506653328250,215.1549004144411
1506653328254,267.1549004144411
1506653328262,308.1549004144411
1506653328271,354.1549004144411
1506653328279,381.1549004144411
1506653328287,404.1549004144411
1506653328295,419.1549004144411
1506653328304,418.1549004144411
1506653328312,417.1549004144411
1506653328320,400.1549004144411
1506653328328,380.1549004144411
1506653328336,357.1549004144411
1506653328344,322.1549004144411
1506653328353,295.1549004144411
1506653328361,259.1549004144411
1506653328369,226.1549004144411
1506653328377,196.1549004144411
1506653328385,161.1549004144411
1506653328393,137.1549004144411
1506653328402,107.1549004144411
1506653328410,85.1549004144411
1506653328418,64.1549004144411
1506653328422,40.1549004144411
1506653328430,27.1549004144411
1506653328438,7.1549004144411015
1506653328447,-3.8450995855588985
1506653328454,-12.845099585558899
1506653328463,-24.8450995855589
1506653328471,-24.8450995855589
1506653328479,-33.8450995855589
1506653328487,-32.8450995855589
1506653328495,-28.8450995855589
1506653328503,-29.8450995855589
1506653328511,-20.8450995855589
1506653328520,-17.8450995855589
1506653328528,-10.845099585558899
1506653328536,-1.8450995855588985
1506653328544,2.4680508913797325
1506653328553,16.97598337318135
1506653328561,18.47741881098733
1506653328569,23.47741881098733
1506653328577,28.47741881098733
1506653328581,24.47741881098733
1506653328590,30.47741881098733
1506653328598,24.47741881098733
1506653328606,21.47741881098733
1506653328614,19.47741881098733
1506653328622,9.47741881098733
1506653328631,8.47741881098733
1506653328639,-0.5225811890126693
1506653328647,-2.5331995912511616
1506653328655,-1.8915373834926754
1506653328663,-7.2507629175971715
1506653328672,-2.7487899915090566
1506653328679,-6.505422564551168
1506653328687,-8.644927948784073
1506653328696,-9.644927948784073
1506653328704,-16.644927948784073
1506653328712,-13.644927948784073
1506653328720,-17.644927948784073
1506653328729,-17.644927948784073
1506653328737,-15.644927948784073
1506653328742,-20.644927948784073
1506653328750,-13.644927948784073
1506653328758,-17.644927948784073
1506653328766,-15.644927948784073
1506653328774,-11.644927948784073
1506653328783,-15.644927948784073
1506653328791,-8.644927948784073
1506653328799,-10.644927948784073
1506653328807,-9.644927948784073
1506653328815,-6.644927948784073
1506653328823,-11.644927948784073
1506653328832,-5.644927948784073
1506653328840,-7.644927948784073
1506653328848,-7.644927948784073
1506653328856,-4.644927948784073
1506653328864,-8.644927948784073
1506653328872,-3.6449279487840727
1506653328881,-6.644927948784073
1506653328889,-7.644927948784073
1506653328897,-4.644927948784073
1506653328901,-9.644927948784073
1506653328909,-5.644927948784073
1506653328918,-9.644927948784073
1506653328926,-10.644927948784073
1506653328934,-8.644927948784073
1506653328942,-14.644927948784073
1506653328950,-11.644927948784073
1506653328959,-16.644927948784073
1506653328967,-16.644927948784073
1506653328975,-16.644927948784073
1506653328983,-20.644927948784073
1506653328991,-25.734617253594195
1506653329000,-38.119586260953895
1506653329008,-46.969202478306954
1506653329016,-31.283820658463128
1506653329024,-11.283820658463128
1506653329032,24.716179341536872
1506653329041,61.71617934153687
1506653329049,105.71617934153687
1506653329056,156.71617934153687
1506653329061,202.71617934153687
1506653329069,255.71617934153687
1506653329077,297.7161793415369
1506653329086,334.7161793415369
1506653329094,367.7161793415369
1506653329102,383.7161793415369
1506653329110,397.7161793415369
1506653329118,396.7161793415369
1506653329126,388.7161793415369
1506653329134,375.7161793415369
1506653329142,350.7161793415369
1506653329150,328.7161793415369
1506653329158,295.7161793415369
1506653329167,263.7161793415369
1506653329175,234.71617934153687
1506653329183,196.71617934153687
1506653329191,170.71617934153687
1506653329199,140.71617934153687
1506653329207,111.71617934153687
1506653329215,90.71617934153687
1506653329220,64.71617934153687
1506653329228,47.71617934153687
1506653329236,27.716179341536872
1506653329245,11.716179341536872
1506653329253,0.716179341536872
1506653329261,-14.283820658463128
1506653329269,-17.283820658463128
1506653329277,-25.283820658463128
1506653329286,-29.283820658463128
1506653329294,-27.283820658463128
1506653329302,-31.283820658463128
1506653329310,-25.283820658463128
1506653329318,-23.283820658463128
1506653329326,-18.283820658463128
1506653329335,-6.998102637278237
1506653329343,-3.9931853609615473
1506653329351,9.36263703895196
1506653329359,12.711000556043246
1506653329368,17.14964159969611
1506653329375,26.591295210966848
1506653329380,24.591295210966848
1506653329388,29.591295210966848
1506653329396,27.591295210966848
1506653329405,25.591295210966848
1506653329413,24.591295210966848
1506653329421,15.591295210966848
1506653329430,13.591295210966848
1506653329438,4.591295210966848
1506653329446,-1.2014752239277868
1506653329453,0.7940378282635265
1506653329462,-6.018468209178934
1506653329470,-1.7873378177684458
1506653329478,-4.6492162207600245
1506653329486,-6.725638616512242
1506653329494,-7.725638616512242
1506653329503,-15.725638616512242
1506653329512,-15.725638616512242
1506653329520,-20.725638616512242
1506653329528,-23.725638616512242
1506653329536,-21.725638616512242
1506653329541,-27.725638616512242
1506653329548,-24.725638616512242
1506653329557,-25.725638616512242
1506653329565,-27.725638616512242
1506653329573,-23.725638616512242
1506653329581,-25.725638616512242
1506653329589,-21.725638616512242
1506653329597,-22.725638616512242
1506653329605,-21.725638616512242
1506653329613,-17.725638616512242
1506653329622,-21.725638616512242
1506653329630,-15.725638616512242
1506653329638,-16.725638616512242
1506653329646,-17.725638616512242
1506653329654,-12.725638616512242
1506653329662,-16.725638616512242
1506653329670,-13.725638616512242
1506653329678,-14.725638616512242
1506653329687,-15.725638616512242
1506653329695,-11.725638616512242
1506653329699,-16.725638616512242
1506653329707,-11.725638616512242
1506653329715,-13.725638616512242
1506653329724,-15.725638616512242
1506653329733,-12.725638616512242
1506653329741,-19.725638616512242
1506653329748,-15.725638616512242
1506653329757,-19.725638616512242
1506653329765,-23.725638616512242
1506653329773,-20.725638616512242
1506653329781,-25.725638616512242
1506653329789,-24.684419990453023
1506653329797,-35.90636769688621
1506653329806,-44.43210060525195
1506653329815,-29.89329031376502
1506653329823,-12.893290313765021
1506653329831,21.10670968623498
1506653329839,56.10670968623498
1506653329847,95.10670968623498
1506653329855,145.10670968623498
1506653329859,189.10670968623498
1506653329867,237.10670968623498
1506653329876,280.106709686235
1506653329885,315.106709686235
1506653329893,348.106709686235
1506653329901,366.106709686235
1506653329909,382.106709686235
1506653329917,385.106709686235
1506653329926,378.106709686235
1506653329934,369.106709686235
1506653329942,346.106709686235
1506653329950,323.106709686235
1506653329958,295.106709686235
1506653329966,263.106709686235
1506653329974,235.10670968623498
1506653329982,199.10670968623498
1506653329991,171.10670968623498
1506653329999,141.10670968623498
1506653330007,112.10670968623498
1506653330015,92.10670968623498
1506653330019,65.10670968623498
1506653330027,47.10670968623498
1506653330036,27.10670968623498
1506653330044,8.106709686234979
1506653330052,-1.8932903137650214
1506653330061,-17.89329031376502
1506653330070,-23.89329031376502
1506653330078,-29.89329031376502
1506653330085,-35.89329031376502
1506653330094,-33.89329031376502
1506653330102,-36.89329031376502
1506653330110,-30.89329031376502
1506653330118,-25.89329031376502
1506653330126,-21.89329031376502
1506653330134,-9.893290313765021
1506653330142,-5.84554062424553
1506653330150,5.417838362644318
1506653330158,14.477158859470535
1506653330167,17.76292320609508
1506653330175,24.76292320609508
1506653330179,24.76292320609508
1506653330187,28.76292320609508
1506653330196,27.76292320609508
1506653330204,23.76292320609508
1506653330212,24.76292320609508
1506653330220,16.76292320609508
1506653330228,14.762923206095081
1506653330237,8.762923206095081
1506653330244,0.7629232060950812
1506653330254,1.215781521919041
1506653330262,-3.7814845183057173
1506653330269,-3.6637941957733915
1506653330278,-4.570732465481967
1506653330286,-7.6261437313037845
1506653330294,-7.6261437313037845
1506653330302,-16.626143731303785
1506653330310,-16.626143731303785
1506653330318,-19.626143731303785
1506653330326,-24.626143731303785
1506653330335,-21.626143731303785
1506653330343,-28.626143731303785
1506653330347,-27.626143731303785
1506653330355,-27.626143731303785
1506653330363,-31.626143731303785
1506653330371,-27.626143731303785
1506653330379,-31.626143731303785
1506653330388,-29.626143731303785
1506653330396,-29.626143731303785
1506653330404,-31.626143731303785
1506653330413,-25.626143731303785
1506653330421,-30.626143731303785
1506653330429,-25.626143731303785
1506653330438,-24.626143731303785
1506653330446,-27.626143731303785
1506653330453,-22.626143731303785
1506653330462,-24.626143731303785
1506653330469,-23.626143731303785
1506653330478,-21.626143731303785
1506653330486,-23.626143731303785
1506653330494,-19.626143731303785
1506653330502,-22.626143731303785
1506653330507,-20.626143731303785
1506653330515,-20.626143731303785
1506653330523,-23.626143731303785
1506653330531,-20.626143731303785
1506653330540,-24.626143731303785
1506653330548,-23.626143731303785
1506653330556,-24.626143731303785
1506653330564,-27.626143731303785
1506653330573,-23.626143731303785
1506653330581,-26.626143731303785
1506653330589,-31.08559904368161
1506653330598,-39.621687195691436
1506653330605,-47.325987095173275
1506653330613,-23.16405102281749
1506653330622,0.835948977182511
1506653330631,36.83594897718251
1506653330638,76.83594897718251
1506653330646,116.83594897718251
1506653330654,165.8359489771825
1506653330662,206.8359489771825
1506653330666,249.8359489771825
1506653330675,286.8359489771825
1506653330683,313.8359489771825
1506653330691,339.8359489771825
1506653330699,349.8359489771825
1506653330707,357.8359489771825
1506653330715,355.8359489771825
1506653330724,342.8359489771825
1506653330732,331.8359489771825
1506653330740,306.8359489771825
1506653330748,282.8359489771825
1506653330757,254.8359489771825
1506653330765,221.8359489771825
1506653330774,195.8359489771825
1506653330781,162.8359489771825
1506653330789,136.8359489771825
1506653330797,110.83594897718251
1506653330806,83.83594897718251
1506653330814,64.83594897718251
1506653330822,39.83594897718251
1506653330826,22.83594897718251
1506653330835,7.835948977182511
1506653330843,-10.164051022817489
1506653330851,-14.164051022817489
1506653330859,-24.16405102281749
1506653330867,-29.16405102281749
1506653330875,-30.16405102281749
1506653330883,-34.16405102281749
1506653330892,-30.16405102281749
1506653330900,-30.16405102281749
1506653330908,-24.16405102281749
1506653330916,-18.16405102281749
1506653330924,-15.164051022817489
1506653330933,-0.974362219685986
1506653330941,2.6835427091296538
1506653330949,15.27261808666674
1506653330958,24.40823598749239
1506653330967,24.40823598749239
1506653330975,30.40823598749239
1506653330983,28.40823598749239
1506653330986,29.40823598749239
1506653330994,26.40823598749239
1506653331002,20.40823598749239
1506653331010,19.40823598749239
1506653331018,10.40823598749239
1506653331027,6.4082359874923895
1506653331035,2.4082359874923895
1506653331044,-8.59176401250761
1506653331052,-8.59176401250761
1506653331060,-18.59176401250761
1506653331068,-24.59176401250761
1506653331076,-30.59176401250761
1506653331084,-40.59176401250761
1506653331092,-40.59176401250761
1506653331101,-48.59176401250761
1506653331109,-51.59176401250761
1506653331117,-53.59176401250761
1506653331126,-59.59176401250761
1506653331134,-55.59176401250761
1506653331143,-60.59176401250761
1506653331146,-59.59176401250761
1506653331153,-57.59176401250761
1506653331161,-59.59176401250761
1506653331170,-56.59176401250761
1506653331179,-57.59176401250761
1506653331187,-55.59176401250761
1506653331195,-54.59176401250761
1506653331203,-56.59176401250761
1506653331211,-49.59176401250761
1506653331219,-49.59176401250761
1506653331228,-46.59176401250761
1506653331236,-43.59176401250761
1506653331244,-46.59176401250761
1506653331252,-41.59176401250761
1506653331260,-44.59176401250761
1506653331268,-44.59176401250761
1506653331276,-45.59176401250761
1506653331285,-48.59176401250761
1506653331293,-44.59176401250761
1506653331301,-41.47409257184444
1506653331305,-40.42804132656255
1506653331313,-36.0194375569306
1506653331321,-26.971454859241987
1506653331330,-8.367277572994226
1506653331338,-1.1520833433375515
1506653331346,15.509775970484952
1506653331354,37.242110797954126
1506653331362,58.39574241902369
1506653331370,91.39574241902369
1506653331378,118.39574241902369
1506653331387,158.3957424190237
1506653331395,202.3957424190237
1506653331403,237.3957424190237
1506653331411,280.3957424190237
1506653331420,314.3957424190237
1506653331428,348.3957424190237
1506653331436,376.3957424190237
1506653331445,388.3957424190237
1506653331452,401.3957424190237
1506653331460,400.3957424190237
1506653331464,393.3957424190237
1506653331473,381.3957424190237
1506653331481,359.3957424190237
1506653331489,339.3957424190237
1506653331497,308.3957424190237
1506653331506,279.3957424190237
1506653331514,249.3957424190237
1506653331522,214.3957424190237
1506653331530,188.3957424190237
1506653331539,155.3957424190237
1506653331547,127.39574241902369
1506653331554,103.39574241902369
1506653331562,74.39574241902369
1506653331571,55.39574241902369
1506653331579,30.39574241902369
1506653331587,13.39574241902369
1506653331595,-2.6042575809763093
1506653331603,-17.60425758097631
1506653331612,-23.60425758097631
1506653331619,-33.60425758097631
1506653331624,-36.60425758097631
1506653331633,-35.60425758097631
1506653331641,-38.60425758097631
1506653331649,-30.60425758097631
1506653331657,-27.60425758097631
1506653331665,-23.60425758097631
1506653331673,-13.60425758097631
1506653331681,-9.60425758097631
1506653331690,0.3957424190236907
1506653331698,4.853175584643338
1506653331706,14.88213167287961
1506653331714,21.88213167287961
1506653331723,20.88213167287961
1506653331731,27.88213167287961
1506653331739,25.88213167287961
1506653331747,23.88213167287961
1506653331756,24.88213167287961
1506653331764,18.88213167287961
1506653331772,18.88213167287961
1506653331780,11.88213167287961
1506653331785,7.882131672879609
1506653331793,4.882131672879609
1506653331801,-5.117868327120391
1506653331809,-6.117868327120391
1506653331817,-14.11786832712039
1506653331826,-19.11786832712039
1506653331834,-22.11786832712039
1506653331842,-29.11786832712039
1506653331850,-30.11786832712039
1506653331858,-36.11786832712039
1506653331867,-40.11786832712039
1506653331875,-41.11786832712039
1506653331883,-46.11786832712039
1506653331891,-44.11786832712039
1506653331899,-48.11786832712039
1506653331907,-48.11786832712039
1506653331916,-45.11786832712039
1506653331924,-48.11786832712039
1506653331932,-43.11786832712039
1506653331940,-45.11786832712039
1506653331944,-46.11786832712039
1506653331953,-42.11786832712039
1506653331961,-44.11786832712039
1506653331969,-39.11786832712039
1506653331977,-40.11786832712039
1506653331985,-39.11786832712039
1506653331993,-36.11786832712039
1506653332001,-36.11786832712039
1506653332010,-31.11786832712039
1506653332018,-31.11786832712039
1506653332026,-29.11786832712039
1506653332034,-23.987842392841458
1506653332043,-15.987842392841458
1506653332051,3.0121576071585423
1506653332059,24.012157607158542
1506653332067,52.01215760715854
1506653332075,89.01215760715854
1506653332083,123.01215760715854
1506653332092,167.01215760715854
1506653332100,206.01215760715854
1506653332108,244.01215760715854
1506653332112,282.01215760715854
1506653332120,307.01215760715854
1506653332128,333.01215760715854
1506653332136,346.01215760715854
1506653332145,352.01215760715854
1506653332153,355.01215760715854
1506653332161,343.01215760715854
1506653332169,332.01215760715854
1506653332177,312.01215760715854
1506653332186,288.01215760715854
1506653332194,265.01215760715854
1506653332202,234.01215760715854
1506653332210,209.01215760715854
1506653332218,180.01215760715854
1506653332226,151.01215760715854
1506653332235,128.01215760715854
1506653332243,99.01215760715854
1506653332251,79.01215760715854
1506653332259,57.01215760715854
1506653332267,39.01215760715854
1506653332271,25.012157607158542
1506653332280,8.012157607158542
1506653332288,-0.9878423928414577
1506653332296,-11.987842392841458
1506653332304,-20.987842392841458
1506653332312,-22.987842392841458
1506653332320,-30.987842392841458
1506653332328,-27.987842392841458
1506653332338,-29.987842392841458
1506653332346,-29.987842392841458
1506653332354,-22.987842392841458
1506653332362,-21.987842392841458
1506653332370,-12.629455135319574
1506653332378,-5.957354344079988
1506653332386,0.5029026695015659
1506653332395,13.004176205409806
1506653332403,17.756708608718498
1506653332411,30.121276514774763
1506653332419,30.121276514774763
1506653332427,27.121276514774763
1506653332432,33.12127651477476
1506653332440,27.121276514774763
1506653332449,24.121276514774763
1506653332457,22.121276514774763
1506653332465,15.121276514774763
1506653332473,8.121276514774763
1506653332481,-3.878723485225237
1506653332489,-7.878723485225237
1506653332497,-15.878723485225237
1506653332506,-22.878723485225237
1506653332513,-24.878723485225237
1506653332522,-33.87872348522524
1506653332530,-33.87872348522524
1506653332538,-38.87872348522524
1506653332546,-41.87872348522524
1506653332555,-40.87872348522524
1506653332563,-45.87872348522524
1506653332571,-42.87872348522524
1506653332579,-43.87872348522524
1506653332587,-44.87872348522524
1506653332591,-40.87872348522524
1506653332601,-44.87872348522524
1506653332608,-39.87872348522524
1506653332617,-40.87872348522524
1506653332624,-40.87872348522524
1506653332633,-36.87872348522524
1506653332641,-39.87872348522524
1506653332649,-36.87872348522524
1506653332657,-37.87872348522524
1506653332665,-38.87872348522524
1506653332673,-31.878723485225237
1506653332681,-31.878723485225237
1506653332689,-31.878723485225237
1506653332698,-34.87872348522524
1506653332706,-31.878723485225237
1506653332714,-23.39267415793057
1506653332722,-37.20036923693209
1506653332730,-22.20036923693209
1506653332739,-4.20036923693209
1506653332747,19.79963076306791
1506653332751,54.79963076306791
1506653332760,86.79963076306791
1506653332768,128.7996307630679
1506653332776,167.7996307630679
1506653332784,206.7996307630679
1506653332792,246.7996307630679
1506653332800,274.7996307630679
1506653332809,306.7996307630679
1506653332817,325.7996307630679
1506653332825,330.7996307630679
1506653332833,338.7996307630679
1506653332842,331.7996307630679
1506653332848,319.7996307630679
1506653332858,298.7996307630679
1506653332866,273.7996307630679
1506653332874,251.7996307630679
1506653332882,219.7996307630679
1506653332890,194.7996307630679
1506653332898,165.7996307630679
1506653332906,136.7996307630679
1506653332911,114.79963076306791
1506653332919,86.79963076306791
1506653332927,68.79963076306791
1506653332936,47.79963076306791
1506653332943,27.79963076306791
1506653332952,14.79963076306791
1506653332961,-3.20036923693209
1506653332969,-12.20036923693209
1506653332977,-21.20036923693209
1506653332984,-30.20036923693209
1506653332993,-31.20036923693209
1506653333001,-37.20036923693209
1506653333009,-34.20036923693209
1506653333017,-33.20036923693209
1506653333026,-31.20036923693209
1506653333034,-22.20036923693209
1506653333042,-19.20036923693209
1506653333050,-9.20036923693209
1506653333058,0.6466336631958143
1506653333066,7.088077814283395
1506653333070,17.088077814283395
1506653333078,18.088077814283395
1506653333087,25.088077814283395
1506653333095,26.088077814283395
1506653333104,24.088077814283395
1506653333112,28.088077814283395
1506653333120,21.088077814283395
1506653333129,21.088077814283395
1506653333137,15.088077814283395
1506653333145,8.088077814283395
1506653333152,5.088077814283395
1506653333160,-3.9119221857166053
1506653333169,-8.911922185716605
1506653333176,-14.911922185716605
1506653333185,-23.911922185716605
1506653333193,-25.911922185716605
1506653333201,-34.911922185716605
1506653333210,-35.911922185716605
1506653333218,-37.911922185716605
1506653333226,-42.911922185716605
1506653333231,-40.911922185716605
1506653333239,-45.911922185716605
1506653333247,-43.911922185716605
1506653333254,-45.911922185716605
1506653333263,-47.911922185716605
1506653333271,-43.911922185716605
1506653333279,-47.911922185716605
1506653333287,-44.911922185716605
1506653333295,-44.911922185716605
1506653333305,-47.911922185716605
1506653333313,-42.911922185716605
1506653333321,-47.911922185716605
1506653333329,-45.911922185716605
1506653333337,-44.911922185716605
1506653333346,-46.911922185716605
1506653333353,-41.911922185716605
1506653333361,-41.911922185716605
1506653333369,-32.56954125237024
1506653333378,-28.02005550300197
1506653333386,-12.02005550300197
1506653333390,14.97994449699803
1506653333398,40.97994449699803
1506653333406,75.97994449699803
1506653333415,114.97994449699803
1506653333423,150.97994449699803
1506653333431,192.97994449699803
1506653333439,224.97994449699803
1506653333448,256.97994449699803
1506653333456,281.97994449699803
1506653333464,296.97994449699803
1506653333472,311.97994449699803
1506653333481,310.97994449699803
1506653333490,308.97994449699803
1506653333498,298.97994449699803
1506653333505,279.97994449699803
1506653333514,262.97994449699803
1506653333521,235.97994449699803
1506653333530,211.97994449699803
1506653333538,184.97994449699803
1506653333546,155.97994449699803
1506653333549,135.97994449699803
1506653333558,106.97994449699803
1506653333566,87.97994449699803
1506653333574,65.97994449699803
1506653333582,41.97994449699803
1506653333590,27.97994449699803
1506653333598,7.97994449699803
1506653333607,-5.02005550300197
1506653333615,-16.02005550300197
1506653333623,-28.02005550300197
1506653333631,-31.02005550300197
1506653333640,-38.02005550300197
1506653333648,-36.02005550300197
1506653333656,-34.02005550300197
1506653333664,-32.02005550300197
1506653333673,-21.02005550300197
1506653333681,-19.02005550300197
1506653333689,-13.02005550300197
1506653333697,-5.02005550300197
1506653333705,0.048231472358452265
1506653333713,11.787462227959963
1506653333717,13.787462227959963
1506653333725,19.787462227959963
1506653333734,21.787462227959963
1506653333742,20.787462227959963
1506653333750,23.787462227959963
1506653333758,17.787462227959963
1506653333767,16.787462227959963
1506653333775,13.787462227959963
1506653333783,6.7874622279599635
1506653333791,8.787462227959963
1506653333799,2.7874622279599635
1506653333808,-3.2125377720400365
1506653333816,-5.2125377720400365
1506653333824,-16.212537772040037
1506653333832,-19.212537772040037
1506653333841,-27.212537772040037
1506653333849,-27.212537772040037
1506653333858,-29.212537772040037
1506653333867,-34.21253777204004
1506653333873,-32.21253777204004
1506653333878,-38.21253777204004
1506653333886,-39.21253777204004
1506653333894,-43.21253777204004
1506653333902,-51.21253777204004
1506653333910,-50.21253777204004
1506653333919,-54.21253777204004
1506653333927,-54.21253777204004
1506653333935,-48.21253777204004
1506653333943,-52.21253777204004
1506653333951,-52.21253777204004
1506653333960,-59.21253777204004
1506653333968,-58.20922174491693
1506653333976,-57.203529469775845
1506653333984,-60.203529469775845
1506653333992,-53.203529469775845
1506653334000,-50.203529469775845
1506653334009,-38.203529469775845
1506653334018,-20.203529469775845
1506653334025,-0.20352946977584452
1506653334033,31.796470530224155
1506653334037,61.796470530224155
1506653334045,99.79647053022416
1506653334054,138.79647053022416
1506653334062,174.79647053022416
1506653334070,216.79647053022416
1506653334078,246.79647053022416
1506653334086,275.79647053022416
1506653334094,299.79647053022416
1506653334103,309.79647053022416
1506653334111,319.79647053022416
1506653334119,317.79647053022416
1506653334127,309.79647053022416
1506653334135,298.79647053022416
1506653334144,277.79647053022416
1506653334152,259.79647053022416
1506653334160,232.79647053022416
1506653334168,208.79647053022416
1506653334176,184.79647053022416
1506653334184,155.79647053022416
1506653334192,136.79647053022416
1506653334197,109.79647053022416
1506653334205,88.79647053022416
1506653334213,71.79647053022416
1506653334221,48.796470530224155
1506653334229,36.796470530224155
1506653334238,18.796470530224155
1506653334247,5.7964705302241555
1506653334254,-2.2035294697758445
1506653334262,-14.203529469775845
1506653334270,-17.203529469775845
1506653334278,-25.203529469775845
1506653334287,-26.203529469775845
1506653334295,-24.203529469775845
1506653334303,-27.203529469775845
1506653334311,-20.203529469775845
1506653334319,-16.888750600068306
1506653334327,-11.318216774563155
1506653334336,-0.9788190580830474
1506653334344,1.4772897287475644
1506653334352,13.23512140344252
1506653334356,14.47443536175956
1506653334364,18.563563748815966
1506653334372,23.563563748815966
1506653334381,19.563563748815966
1506653334389,23.563563748815966
1506653334397,18.563563748815966
1506653334405,15.563563748815966
1506653334413,13.563563748815966
1506653334422,4.563563748815966
1506653334430,3.563563748815966
1506653334438,-4.436436251184034
1506653334447,-10.436436251184034
1506653334454,-13.436436251184034
1506653334462,-23.436436251184034
1506653334471,-24.436436251184034
1506653334479,-31.436436251184034
1506653334487,-35.436436251184034
1506653334495,-35.436436251184034
1506653334503,-41.436436251184034
1506653334511,-40.436436251184034
1506653334516,-43.436436251184034
1506653334524,-43.436436251184034
1506653334532,-42.436436251184034
1506653334541,-46.436436251184034
1506653334549,-41.436436251184034
1506653334557,-43.436436251184034
1506653334565,-43.436436251184034
1506653334573,-40.436436251184034
1506653334581,-42.436436251184034
1506653334589,-38.436436251184034
1506653334598,-40.436436251184034
1506653334606,-39.436436251184034
1506653334614,-38.436436251184034
1506653334622,-42.436436251184034
1506653334630,-39.436436251184034
1506653334639,-42.436436251184034
1506653334647,-40.436436251184034
1506653334655,-37.436436251184034
1506653334663,-35.436436251184034
1506653334671,-36.3579463363792
1506653334675,-22.3579463363792
1506653334684,-1.3579463363792001
1506653334692,28.6420536636208
1506653334700,56.6420536636208
1506653334708,95.6420536636208
1506653334716,132.6420536636208
1506653334725,170.6420536636208
1506653334733,208.6420536636208
1506653334741,237.6420536636208
1506653334750,268.6420536636208
1506653334757,285.6420536636208
1506653334766,298.6420536636208
1506653334774,306.6420536636208
1506653334782,301.6420536636208
1506653334790,296.6420536636208
1506653334798,280.6420536636208
1506653334807,263.6420536636208
1506653334815,244.6420536636208
1506653334823,218.6420536636208
1506653334831,198.6420536636208
1506653334836,170.6420536636208
1506653334844,147.6420536636208
1506653334852,126.6420536636208
1506653334860,101.6420536636208
1506653334868,86.6420536636208
1506653334876,64.6420536636208
1506653334884,46.6420536636208
1506653334893,34.6420536636208
1506653334901,16.6420536636208
1506653334909,7.6420536636208
1506653334917,-5.3579463363792
1506653334926,-11.3579463363792
1506653334934,-8.3579463363792
1506653334942,-14.3579463363792
1506653334951,-14.3579463363792
1506653334959,-16.3579463363792
1506653334967,-16.3579463363792
1506653334975,-10.530730959989057
1506653334983,-7.426953440716659
1506653334991,-0.85156215106025
1506653334995,3.211385574771157
1506653335003,5.671352248570599
1506653335012,10.21314397176684
1506653335020,8.312135817364322
1506653335028,15.324230621330173
1506653335037,14.782251402116458
1506653335045,15.36523172512699
1506653335052,18.36523172512699
1506653335060,12.36523172512699
1506653335069,15.36523172512699
1506653335077,10.36523172512699
1506653335086,5.365231725126989
1506653335093,5.365231725126989
1506653335102,-3.634768274873011
1506653335110,-5.634768274873011
1506653335119,-10.63476827487301
1506653335127,-16.63476827487301
1506653335135,-20.63476827487301
1506653335143,-30.63476827487301
1506653335151,-31.63476827487301
1506653335156,-36.63476827487301
1506653335164,-40.63476827487301
1506653335172,-39.63476827487301
1506653335180,-44.63476827487301
1506653335188,-42.63476827487301
1506653335196,-44.63476827487301
1506653335204,-45.63476827487301
1506653335213,-42.63476827487301
1506653335221,-45.63476827487301
1506653335229,-40.63476827487301
1506653335238,-40.63476827487301
1506653335246,-40.63476827487301
1506653335254,-36.63476827487301
1506653335262,-40.63476827487301
1506653335270,-35.63476827487301
1506653335279,-37.63476827487301
1506653335287,-39.63476827487301
1506653335295,-36.63476827487301
1506653335303,-41.63476827487301
1506653335311,-39.63476827487301
1506653335316,-41.63476827487301
1506653335324,-43.63476827487301
1506653335332,-41.63476827487301
1506653335340,-43.63476827487301
1506653335348,-32.63476827487301
1506653335356,-31.800989117281176
1506653335365,-25.57732818454292
1506653335373,-6.577328184542921
1506653335381,10.422671815457079
1506653335389,42.42267181545708
1506653335397,74.42267181545708
1506653335405,110.42267181545708
1506653335413,151.42267181545708
1506653335421,185.42267181545708
1506653335430,222.42267181545708
1506653335438,251.42267181545708
1506653335446,274.4226718154571
1506653335454,294.4226718154571
1506653335462,300.4226718154571
1506653335470,307.4226718154571
1506653335474,302.4226718154571
1506653335484,290.4226718154571
1506653335491,280.4226718154571
1506653335500,257.4226718154571
1506653335507,240.42267181545708
1506653335516,215.42267181545708
1506653335524,189.42267181545708
1506653335532,168.42267181545708
1506653335541,140.42267181545708
1506653335549,122.42267181545708
1506653335557,99.42267181545708
1506653335565,77.42267181545708
1506653335573,63.42267181545708
1506653335581,41.42267181545708
1506653335590,29.42267181545708
1506653335598,15.422671815457079
1506653335606,0.422671815457079
1506653335614,-5.577328184542921
1506653335622,-16.57732818454292
1506653335630,-18.57732818454292
1506653335638,-23.57732818454292
1506653335643,-25.57732818454292
1506653335652,-21.57732818454292
1506653335660,-23.57732818454292
1506653335667,-15.01594616502723
1506653335676,-10.4268362495514
1506653335684,-7.24116637227894
1506653335692,2.669795325496466
1506653335700,5.487520731400934
1506653335708,13.92297607733417
1506653335716,18.406734197418302
1506653335724,19.871079193371656
1506653335733,27.62202728470362
1506653335741,21.62202728470362
1506653335749,23.62202728470362
1506653335757,19.62202728470362
1506653335766,14.62202728470362
1506653335774,13.62202728470362
1506653335782,4.62202728470362
1506653335790,1.62202728470362
1506653335798,-4.37797271529638
1506653335803,-12.37797271529638
1506653335811,-14.37797271529638
1506653335820,-23.37797271529638
1506653335828,-25.37797271529638
1506653335836,-29.37797271529638
1506653335844,-34.37797271529638
1506653335853,-33.37797271529638
1506653335860,-39.37797271529638
1506653335869,-37.37797271529638
1506653335877,-40.37797271529638
1506653335885,-42.37797271529638
1506653335893,-38.37797271529638
1506653335901,-43.37797271529638
1506653335909,-40.37797271529638
1506653335917,-40.37797271529638
1506653335925,-42.37797271529638
1506653335933,-37.37797271529638
1506653335942,-40.37797271529638
1506653335950,-36.37797271529638
1506653335958,-36.37797271529638
1506653335962,-37.37797271529638
1506653335970,-31.37797271529638
1506653335979,-36.37797271529638
1506653335987,-33.37797271529638
1506653335995,-34.37797271529638
1506653336003,-37.37797271529638
1506653336012,-33.37797271529638
1506653336020,-39.37797271529638
1506653336027,-38.37797271529638
1506653336036,-40.37797271529638
1506653336045,-42.37797271529638
1506653336052,-39.37797271529638
1506653336060,-41.37797271529638
1506653336068,-31.37797271529638
1506653336076,-37.2994874879206
1506653336084,-25.507666424162096
1506653336093,0.49233357583790394
1506653336102,23.492333575837904
1506653336110,56.492333575837904
1506653336118,93.4923335758379
1506653336122,129.4923335758379
1506653336130,171.4923335758379
1506653336139,203.4923335758379
1506653336147,239.4923335758379
1506653336154,266.4923335758379
1506653336163,283.4923335758379
1506653336170,302.4923335758379
1506653336179,304.4923335758379
1506653336188,305.4923335758379
1506653336197,298.4923335758379
1506653336205,282.4923335758379
1506653336213,270.4923335758379
1506653336221,246.4923335758379
1506653336229,226.4923335758379
1506653336237,202.4923335758379
1506653336245,175.4923335758379
1506653336253,155.4923335758379
1506653336261,127.4923335758379
1506653336269,108.4923335758379
1506653336277,89.4923335758379
1506653336282,67.4923335758379
1506653336290,56.492333575837904
1506653336298,35.492333575837904
1506653336306,22.492333575837904
1506653336314,10.492333575837904
1506653336322,-3.507666424162096
1506653336331,-8.507666424162096
1506653336339,-18.507666424162096
1506653336348,-19.507666424162096
1506653336355,-22.507666424162096
1506653336363,-25.507666424162096
1506653336373,-19.507666424162096
1506653336381,-20.507666424162096
1506653336389,-13.083053255474795
1506653336396,-7.158042706515914
1506653336406,-3.633838742097282
1506653336412,6.24963457309002
1506653336421,8.811388570187148
1506653336429,15.097783919570986
1506653336437,20.292373494810647
1506653336442,19.898394562432998
1506653336450,24.898394562432998
1506653336457,19.898394562432998
1506653336466,20.898394562432998
1506653336474,17.898394562432998
1506653336482,9.898394562432998
1506653336490,9.898394562432998
1506653336498,0.8983945624329976
1506653336507,0.1623799587944177
1506653336515,-0.7082003073786041
1506653336523,-4.449147036297688
1506653336531,-4.807966980142908
1506653336541,-11.807966980142908
1506653336548,-15.807966980142908
1506653336556,-18.807966980142908
1506653336565,-23.807966980142908
1506653336573,-22.807966980142908
1506653336580,-28.807966980142908
1506653336589,-27.807966980142908
1506653336596,-27.807966980142908
1506653336600,-32.80796698014291
1506653336609,-28.807966980142908
1506653336617,-32.80796698014291
1506653336625,-30.807966980142908
1506653336633,-29.807966980142908
1506653336642,-31.807966980142908
1506653336650,-26.807966980142908
1506653336658,-30.807966980142908
1506653336666,-27.807966980142908
1506653336674,-27.807966980142908
1506653336682,-30.807966980142908
1506653336691,-24.807966980142908
1506653336699,-27.807966980142908
1506653336707,-26.807966980142908
1506653336715,-24.807966980142908
1506653336723,-26.807966980142908
1506653336731,-22.807966980142908
1506653336740,-27.807966980142908
1506653336748,-26.807966980142908
1506653336756,-26.807966980142908
1506653336760,-30.807966980142908
1506653336768,-26.807966980142908
1506653336776,-31.807966980142908
1506653336785,-30.807966980142908
1506653336793,-31.807966980142908
1506653336801,-35.80796698014291
1506653336810,-31.807966980142908
1506653336818,-33.80796698014291
1506653336826,-28.807966980142908
1506653336834,-34.185485761075256
1506653336843,-38.85383358211982
1506653336851,-16.85383358211982
1506653336859,4.146166417880181
1506653336867,35.14616641788018
1506653336875,71.14616641788018
1506653336883,105.14616641788018
1506653336892,148.14616641788018
1506653336901,183.14616641788018
1506653336909,219.14616641788018
1506653336917,252.14616641788018
1506653336920,273.1461664178802
1506653336928,294.1461664178802
1506653336937,301.1461664178802
1506653336946,303.1461664178802
1506653336953,301.1461664178802
1506653336961,285.1461664178802
1506653336969,274.1461664178802
1506653336978,252.14616641788018
1506653336986,232.14616641788018
1506653336995,209.14616641788018
1506653337003,181.14616641788018
1506653337011,161.14616641788018
1506653337019,134.14616641788018
1506653337027,113.14616641788018
1506653337035,94.14616641788018
1506653337044,71.14616641788018
1506653337051,58.14616641788018
1506653337060,39.14616641788018
1506653337068,26.14616641788018
1506653337076,15.146166417880181
1506653337084,0.14616641788018114
1506653337089,-3.853833582119819
1506653337097,-14.853833582119819
1506653337105,-18.85383358211982
1506653337113,-20.85383358211982
1506653337122,-25.85383358211982
1506653337130,-20.85383358211982
1506653337138,-22.85383358211982
1506653337146,-18.48484349209656
1506653337154,-10.471192470012227
1506653337162,-7.889981510925736
1506653337170,1.2950436248572714
1506653337178,5.288807491573891
1506653337187,12.70805336272997
1506653337195,19.22231147669862
1506653337203,19.103156623043446
1506653337211,25.63858060447484
1506653337219,23.63858060447484
1506653337228,22.63858060447484
1506653337236,22.63858060447484
1506653337244,14.63858060447484
1506653337248,14.63858060447484
1506653337257,6.638580604474839
1506653337265,0.6385806044748392
1506653337273,1.9571508803398956
1506653337281,-4.472157886542618
1506653337289,-0.7848428954449673
1506653337298,-4.109877374912514
1506653337306,-4.565627681065735
1506653337314,-7.565627681065735
1506653337322,-15.565627681065735
1506653337330,-15.565627681065735
1506653337339,-20.565627681065735
1506653337347,-22.565627681065735
1506653337355,-22.565627681065735
1506653337363,-26.565627681065735
1506653337371,-23.565627681065735
1506653337379,-25.565627681065735
1506653337388,-26.565627681065735
1506653337396,-23.565627681065735
1506653337403,-26.565627681065735
1506653337408,-21.565627681065735
1506653337416,-24.565627681065735
1506653337424,-23.565627681065735
1506653337432,-20.565627681065735
1506653337441,-24.565627681065735
1506653337449,-19.565627681065735
1506653337457,-20.565627681065735
1506653337466,-20.565627681065735
1506653337474,-18.565627681065735
1506653337482,-21.565627681065735
1506653337490,-17.565627681065735
1506653337498,-20.565627681065735
1506653337507,-20.565627681065735
1506653337515,-18.565627681065735
1506653337523,-22.565627681065735
1506653337531,-18.565627681065735
1506653337539,-20.565627681065735
1506653337547,-22.565627681065735
1506653337555,-21.565627681065735
1506653337563,-25.565627681065735
1506653337567,-22.565627681065735
1506653337575,-26.565627681065735
1506653337584,-27.565627681065735
1506653337592,-26.565627681065735
1506653337600,-28.565627681065735
1506653337608,-26.665227322965563
1506653337616,-35.99640163864433
1506653337625,-42.14181668903177
1506653337633,-25.87869482301386
1506653337641,-6.878694823013859
1506653337650,27.12130517698614
1506653337658,66.12130517698614
1506653337666,104.12130517698614
1506653337674,145.12130517698614
1506653337682,180.12130517698614
1506653337691,220.12130517698614
1506653337699,251.12130517698614
1506653337707,275.12130517698614
1506653337715,297.12130517698614
1506653337723,302.12130517698614
1506653337728,305.12130517698614
1506653337735,297.12130517698614
1506653337744,284.12130517698614
1506653337752,271.12130517698614
1506653337760,247.12130517698614
1506653337768,228.12130517698614
1506653337776,202.12130517698614
1506653337784,176.12130517698614
1506653337792,154.12130517698614
1506653337801,128.12130517698614
1506653337809,109.12130517698614
1506653337817,86.12130517698614
1506653337825,67.12130517698614
1506653337833,53.12130517698614
1506653337842,33.12130517698614
1506653337851,23.12130517698614
1506653337858,10.12130517698614
1506653337866,-1.8786948230138591
1506653337875,-9.87869482301386
1506653337882,-20.87869482301386
1506653337887,-22.87869482301386
1506653337895,-27.87869482301386
1506653337903,-27.87869482301386
1506653337911,-22.87869482301386
1506653337919,-25.87869482301386
1506653337928,-19.87869482301386
1506653337936,-17.704395412776137
1506653337945,-12.718179497474125
1506653337952,-0.2831651637483219
1506653337961,-0.1398914505156199
1506653337968,11.76920648907992
1506653337977,18.580432455973778
1506653337985,25.96289802005316
1506653337994,30.96289802005316
1506653338002,25.96289802005316
1506653338010,29.96289802005316
1506653338019,27.96289802005316
1506653338026,22.96289802005316
1506653338035,22.96289802005316
1506653338043,11.96289802005316
1506653338048,7.96289802005316
1506653338055,5.8630925732834385
1506653338063,0.21829036398213475
1506653338072,0.49378725502941734
1506653338080,-14.506212744970583
1506653338088,-22.506212744970583
1506653338096,-31.506212744970583
1506653338104,-37.50621274497058
1506653338112,-40.50621274497058
1506653338120,-46.50621274497058
1506653338129,-44.50621274497058
1506653338138,-46.50621274497058
1506653338146,-47.50621274497058
1506653338154,-43.50621274497058
1506653338162,-45.50621274497058
1506653338170,-41.50621274497058
1506653338178,-40.50621274497058
1506653338186,-39.50621274497058
1506653338194,-33.50621274497058
1506653338203,-34.50621274497058
1506653338208,-29.506212744970583
1506653338215,-28.506212744970583
1506653338223,-28.506212744970583
1506653338231,-24.506212744970583
1506653338239,-28.506212744970583
1506653338248,-23.506212744970583
1506653338256,-24.506212744970583
1506653338264,-25.506212744970583
1506653338272,-23.506212744970583
1506653338280,-27.506212744970583
1506653338288,-25.506212744970583
1506653338296,-27.506212744970583
1506653338305,-30.506212744970583
1506653338313,-28.506212744970583
1506653338321,-32.50621274497058
1506653338329,-31.506212744970583
1506653338338,-34.50621274497058
1506653338346,-37.50621274497058
1506653338353,-33.50621274497058
1506653338363,-36.50621274497058
1506653338367,-30.506212744970583
1506653338376,-37.028661145413025
1506653338383,-28.746453818039868
1506653338392,-4.746453818039868
1506653338399,17.253546181960132
1506653338408,50.25354618196013
1506653338415,84.25354618196013
1506653338424,119.25354618196013
1506653338432,160.25354618196013
1506653338440,193.25354618196013
1506653338449,229.25354618196013
1506653338456,258.25354618196013
1506653338464,278.25354618196013
1506653338472,298.25354618196013
1506653338481,302.25354618196013
1506653338489,305.25354618196013
1506653338497,299.25354618196013
1506653338506,285.25354618196013
1506653338513,272.25354618196013
1506653338521,247.25354618196013
1506653338526,228.25354618196013
1506653338535,202.25354618196013
1506653338543,175.25354618196013
1506653338552,155.25354618196013
1506653338559,127.25354618196013
1506653338568,107.25354618196013
1506653338575,86.25354618196013
1506653338583,65.25354618196013
1506653338591,51.25354618196013
1506653338599,31.253546181960132
1506653338607,21.253546181960132
1506653338616,8.253546181960132
1506653338624,-4.746453818039868
1506653338632,-9.746453818039868
1506653338640,-20.746453818039868
1506653338649,-21.746453818039868
1506653338656,-24.746453818039868
1506653338665,-27.746453818039868
1506653338673,-22.746453818039868
1506653338681,-23.746453818039868
1506653338685,-16.82786210710924
1506653338694,-11.987461784370225
1506653338701,-5.7486978816994
1506653338710,3.899651300283324
1506653338719,7.553790153396051
1506653338728,15.939992071471863
1506653338735,20.048252151738325
1506653338743,23.225732958516915
1506653338751,28.225732958516915
1506653338759,24.225732958516915
1506653338768,24.225732958516915
1506653338776,22.225732958516915
1506653338784,15.225732958516915
1506653338792,14.225732958516915
1506653338801,4.2257329585169146
1506653338809,2.1034750475234887
1506653338817,-0.4051626271230475
1506653338825,-4.73723425735767
1506653338833,-2.040470507733005
1506653338841,-7.451509140020505
1506653338846,-5.090052594612075
1506653338853,-5.0546579040578195
1506653338861,-7.420952982545373
1506653338870,-6.420952982545373
1506653338878,-12.420952982545373
1506653338886,-11.420952982545373
1506653338894,-12.420952982545373
1506653338902,-14.420952982545373
1506653338911,-11.420952982545373
1506653338919,-15.420952982545373
1506653338927,-11.420952982545373
1506653338935,-11.420952982545373
1506653338944,-13.420952982545373
1506653338952,-8.420952982545373
1506653338960,-12.420952982545373
1506653338968,-8.420952982545373
1506653338977,-8.420952982545373
1506653338985,-10.420952982545373
1506653338993,-7.420952982545373
1506653339001,-10.420952982545373
1506653339009,-8.420952982545373
1506653339013,-6.420952982545373
1506653339022,-8.420952982545373
1506653339030,-5.420952982545373
1506653339038,-8.420952982545373
1506653339046,-7.420952982545373
1506653339054,-7.420952982545373
1506653339062,-11.420952982545373
1506653339070,-7.420952982545373
1506653339078,-12.420952982545373
1506653339087,-10.420952982545373
1506653339095,-10.420952982545373
1506653339103,-14.420952982545373
1506653339111,-11.420952982545373
1506653339119,-16.420952982545373
1506653339127,-14.420952982545373
1506653339136,-14.420952982545373
1506653339145,-18.420952982545373
1506653339153,-15.420952982545373
1506653339160,-17.420952982545373
1506653339168,-22.95519325033223
1506653339173,-28.87744134259742
1506653339181,-38.65933524196936
1506653339189,-23.81600691454298
1506653339197,-7.816006914542982
1506653339206,20.18399308545702
1506653339214,52.18399308545702
1506653339222,87.18399308545702
1506653339230,131.18399308545702
1506653339239,169.18399308545702
1506653339247,211.18399308545702
1506653339255,249.18399308545702
1506653339263,277.183993085457
1506653339272,307.183993085457
1506653339280,322.183993085457
1506653339288,334.183993085457
1506653339296,339.183993085457
1506653339304,332.183993085457
1506653339312,325.183993085457
1506653339320,306.183993085457
1506653339328,289.183993085457
1506653339333,267.183993085457
1506653339341,239.18399308545702
1506653339349,219.18399308545702
1506653339358,190.18399308545702
1506653339366,167.18399308545702
1506653339374,145.18399308545702
1506653339382,121.18399308545702
1506653339390,105.18399308545702
1506653339398,85.18399308545702
1506653339407,71.18399308545702
1506653339415,57.18399308545702
1506653339424,40.18399308545702
1506653339432,33.18399308545702
1506653339441,18.18399308545702
1506653339449,10.183993085457018
1506653339456,3.1839930854570184
1506653339464,-7.816006914542982
1506653339472,-8.816006914542982
1506653339480,-14.816006914542982
1506653339488,-14.816006914542982
1506653339492,-13.715548130519153
1506653339501,-13.552467493529662
1506653339509,-7.550223353923286
1506653339517,-6.000295464248097
1506653339525,-0.757015586223531
1506653339534,5.362496670403459
1506653339542,6.784942706224513
1506653339550,14.874972787377885
1506653339558,13.619502969744929
1506653339566,16.87135501230631
1506653339574,19.29902817730499
1506653339582,14.91466414779336
1506653339590,15.91466414779336
1506653339599,10.91466414779336
1506653339607,8.91466414779336
1506653339616,3.91466414779336
1506653339623,-0.6113956968167145
1506653339632,2.190558471421184
1506653339640,-1.7920335525364521
1506653339648,-1.6732018329742004
1506653339652,-0.5644655061294088
1506653339661,-10.564465506129409
1506653339669,-10.564465506129409
1506653339677,-17.56446550612941
1506653339685,-19.56446550612941
1506653339694,-20.56446550612941
1506653339702,-25.56446550612941
1506653339710,-22.56446550612941
1506653339718,-26.56446550612941
1506653339727,-25.56446550612941
1506653339735,-24.56446550612941
1506653339743,-27.56446550612941
1506653339751,-23.56446550612941
1506653339759,-26.56446550612941
1506653339768,-25.56446550612941
1506653339776,-24.56446550612941
1506653339784,-27.56446550612941
1506653339793,-23.56446550612941
1506653339801,-25.56446550612941
1506653339808,-23.56446550612941
1506653339812,-21.56446550612941
1506653339820,-24.56446550612941
1506653339829,-19.56446550612941
1506653339837,-22.56446550612941
1506653339845,-20.56446550612941
1506653339854,-19.56446550612941
1506653339862,-23.56446550612941
1506653339870,-18.56446550612941
1506653339878,-22.56446550612941
1506653339886,-22.56446550612941
1506653339894,-21.56446550612941
1506653339902,-26.56446550612941
1506653339910,-24.56446550612941
1506653339919,-29.56446550612941
1506653339927,-29.56446550612941
1506653339935,-28.56446550612941
1506653339943,-33.56446550612941
1506653339951,-28.56446550612941
1506653339960,-28.990583042058915
1506653339968,-36.338414733557556
1506653339972,-33.621978627234796
1506653339980,-18.621978627234796
1506653339988,8.378021372765204
1506653339996,35.378021372765204
1506653340005,71.3780213727652
1506653340013,112.3780213727652
1506653340021,148.3780213727652
1506653340029,193.3780213727652
1506653340037,228.3780213727652
1506653340046,263.3780213727652
1506653340054,291.3780213727652
1506653340062,309.3780213727652
1506653340070,325.3780213727652
1506653340078,328.3780213727652
1506653340086,326.3780213727652
1506653340094,320.3780213727652
1506653340103,303.3780213727652
1506653340111,288.3780213727652
1506653340119,263.3780213727652
1506653340127,240.3780213727652
1506653340131,218.3780213727652
1506653340140,189.3780213727652
1506653340148,170.3780213727652
1506653340155,145.3780213727652
1506653340164,124.3780213727652
1506653340172,107.3780213727652
1506653340180,85.3780213727652
1506653340188,73.3780213727652
1506653340196,55.378021372765204
1506653340204,42.378021372765204
1506653340213,31.378021372765204
1506653340221,17.378021372765204
1506653340229,11.378021372765204
1506653340237,-0.621978627234796
1506653340246,-6.621978627234796
1506653340254,-9.621978627234796
1506653340262,-18.621978627234796
1506653340270,-15.621978627234796
1506653340278,-16.428592570819717
1506653340286,-15.45429866024125
1506653340290,-9.995096943981991
1506653340299,-9.830200400647584
1506653340307,-1.8978469218621967
1506653340315,-0.0963548823260112
1506653340323,4.104720575735598
1506653340331,11.801850400822616
1506653340340,11.179099439647302
1506653340348,19.83132614682677
1506653340356,18.20252740025569
1506653340364,18.015836339106556
1506653340372,20.015836339106556
1506653340380,14.015836339106556
1506653340389,14.015836339106556
1506653340397,8.015836339106556
1506653340405,3.0158363391065564
1506653340413,3.6348323316395863
1506653340421,-2.4650796510849773
1506653340430,-1.4147959981055465
1506653340438,-5.3431150344634375
1506653340447,-9.343115034463437
1506653340451,-10.343115034463437
1506653340459,-18.343115034463437
1506653340468,-17.343115034463437
1506653340476,-22.343115034463437
1506653340484,-24.343115034463437
1506653340492,-23.343115034463437
1506653340500,-28.343115034463437
1506653340508,-24.343115034463437
1506653340517,-27.343115034463437
1506653340525,-26.343115034463437
1506653340533,-23.343115034463437
1506653340541,-27.343115034463437
1506653340549,-23.343115034463437
1506653340558,-25.343115034463437
1506653340566,-25.343115034463437
1506653340574,-21.343115034463437
1506653340582,-24.343115034463437
1506653340591,-20.343115034463437
1506653340599,-21.343115034463437
1506653340607,-22.343115034463437
1506653340611,-18.343115034463437
1506653340619,-23.343115034463437
1506653340628,-19.343115034463437
1506653340636,-21.343115034463437
1506653340644,-21.343115034463437
1506653340652,-19.343115034463437
1506653340660,-24.343115034463437
1506653340668,-22.343115034463437
1506653340676,-24.343115034463437
1506653340685,-26.343115034463437
1506653340693,-25.343115034463437
1506653340701,-31.343115034463437
1506653340709,-28.343115034463437
1506653340717,-31.343115034463437
1506653340726,-33.34311503446344
1506653340733,-27.343115034463437
1506653340742,-29.482422255480856
1506653340750,-32.60543645786743
1506653340759,-32.380882187295015
1506653340766,-15.380882187295015
1506653340771,10.619117812704985
1506653340779,35.619117812704985
1506653340787,72.61911781270499
1506653340795,108.61911781270499
1506653340803,147.61911781270499
1506653340812,189.61911781270499
1506653340820,222.61911781270499
1506653340828,257.619117812705
1506653340836,282.619117812705
1506653340845,301.619117812705
1506653340853,316.619117812705
1506653340860,318.619117812705
1506653340868,319.619117812705
1506653340877,308.619117812705
1506653340885,293.619117812705
1506653340893,279.619117812705
1506653340901,253.61911781270499
1506653340910,233.61911781270499
1506653340918,208.61911781270499
1506653340927,181.61911781270499
1506653340934,162.61911781270499
1506653340939,135.61911781270499
1506653340947,118.61911781270499
1506653340955,98.61911781270499
1506653340963,79.61911781270499
1506653340971,65.61911781270499
1506653340979,47.619117812704985
1506653340987,37.619117812704985
1506653340995,22.619117812704985
1506653341004,12.619117812704985
1506653341012,5.619117812704985
1506653341020,-7.380882187295015
1506653341028,-10.380882187295015
1506653341036,-16.380882187295015
1506653341045,-20.380882187295015
1506653341053,-18.380882187295015
1506653341062,-22.380882187295015
1506653341070,-16.380882187295015
1506653341078,-13.634867626938103
1506653341086,-10.488781230473307
1506653341094,-0.6850753862090073
1506653341099,-0.22432086952431973
1506653341107,7.97268292259821
1506653341115,12.242910779885335
1506653341123,15.092534345356455
1506653341131,21.239122997112077
1506653341139,18.718363606965227
1506653341148,21.718363606965227
1506653341156,18.718363606965227
1506653341164,14.718363606965227
1506653341172,15.718363606965227
1506653341180,6.718363606965227
1506653341189,4.718363606965227
1506653341197,0.6189412287545792
1506653341205,-2.5626858462495647
1506653341213,-3.5626858462495647
1506653341221,-12.562685846249565
1506653341229,-14.562685846249565
1506653341238,-19.562685846249565
1506653341246,-25.562685846249565
1506653341253,-25.562685846249565
1506653341258,-32.562685846249565
1506653341266,-31.562685846249565
1506653341274,-33.562685846249565
1506653341282,-36.562685846249565
1506653341290,-34.562685846249565
1506653341298,-39.562685846249565
1506653341307,-36.562685846249565
1506653341316,-37.562685846249565
1506653341324,-39.562685846249565
1506653341332,-35.562685846249565
1506653341340,-39.562685846249565
1506653341348,-36.562685846249565
1506653341357,-37.562685846249565
1506653341365,-36.562685846249565
1506653341373,-32.562685846249565
1506653341381,-36.562685846249565
1506653341389,-32.562685846249565
1506653341397,-32.562685846249565
1506653341406,-33.562685846249565
1506653341414,-30.562685846249565
1506653341419,-35.562685846249565
1506653341426,-32.562685846249565
1506653341434,-34.562685846249565
1506653341443,-37.562685846249565
1506653341451,-34.562685846249565
1506653341459,-39.562685846249565
1506653341467,-38.562685846249565
1506653341475,-39.562685846249565
1506653341484,-41.562685846249565
1506653341492,-35.562685846249565
1506653341500,-34.562685846249565
1506653341508,-32.72724439375594
1506653341516,-18.72724439375594
1506653341524,-0.7272443937559387
1506653341533,30.27275560624406
1506653341541,56.27275560624406
1506653341549,94.27275560624406
1506653341557,131.27275560624406
1506653341566,167.27275560624406
1506653341573,206.27275560624406
1506653341577,235.27275560624406
1506653341586,264.27275560624406
1506653341594,284.27275560624406
1506653341602,295.27275560624406
1506653341610,307.27275560624406
1506653341618,302.27275560624406
1506653341627,297.27275560624406
1506653341634,286.27275560624406
1506653341643,266.27275560624406
1506653341651,249.27275560624406
1506653341659,223.27275560624406
1506653341668,201.27275560624406
1506653341676,176.27275560624406
1506653341684,151.27275560624406
1506653341692,133.27275560624406
1506653341700,108.27275560624406
1506653341708,91.27275560624406
1506653341717,73.27275560624406
1506653341725,55.27275560624406
1506653341733,44.27275560624406
1506653341737,27.27275560624406
1506653341745,19.27275560624406
1506653341753,7.272755606244061
1506653341761,-5.727244393755939
1506653341769,-8.727244393755939
1506653341777,-19.72724439375594
1506653341787,-18.72724439375594
1506653341796,-19.72724439375594
1506653341803,-22.72724439375594
1506653341812,-16.72724439375594
1506653341820,-17.72724439375594
1506653341827,-10.779140793133934
1506653341836,-4.5753456661404925
1506653341844,-3.5346895314776816
1506653341852,7.978914560716248
1506653341860,8.31496878371513
1506653341868,16.06961647665787
1506653341876,20.625845271613912
1506653341884,19.637405631066656
1506653341892,23.637405631066656
1506653341897,18.637405631066656
1506653341905,18.637405631066656
1506653341913,15.637405631066656
1506653341922,8.637405631066656
1506653341930,7.637405631066656
1506653341938,-1.362594368933344
1506653341946,-3.362594368933344
1506653341955,-8.362594368933344
1506653341963,-15.362594368933344
1506653341971,-17.362594368933344
1506653341980,-25.362594368933344
1506653341987,-26.362594368933344
1506653341995,-29.362594368933344
1506653342004,-35.362594368933344
1506653342011,-33.362594368933344
1506653342020,-38.362594368933344
1506653342028,-38.362594368933344
1506653342036,-39.362594368933344
1506653342045,-42.362594368933344
1506653342052,-38.362594368933344
1506653342057,-41.362594368933344
1506653342065,-38.362594368933344
1506653342073,-37.362594368933344
1506653342081,-40.362594368933344
1506653342089,-33.362594368933344
1506653342097,-37.362594368933344
1506653342106,-34.362594368933344
1506653342114,-34.362594368933344
1506653342122,-37.362594368933344
1506653342131,-33.362594368933344
1506653342138,-37.362594368933344
1506653342147,-36.362594368933344
1506653342156,-37.362594368933344
1506653342164,-41.362594368933344
1506653342171,-38.362594368933344
1506653342180,-42.362594368933344
1506653342187,-41.362594368933344
1506653342195,-41.362594368933344
1506653342204,-46.362594368933344
1506653342211,-41.362594368933344
1506653342216,-43.362594368933344
1506653342224,-36.362594368933344
1506653342232,-30.89617843999588
1506653342241,-17.89617843999588
1506653342250,5.103821560004121
1506653342257,27.10382156000412
1506653342266,59.10382156000412
1506653342273,94.10382156000412
1506653342281,126.10382156000412
1506653342290,168.10382156000412
1506653342298,199.10382156000412
1506653342306,231.10382156000412
1506653342316,257.1038215600041
1506653342323,272.1038215600041
1506653342332,289.1038215600041
1506653342341,291.1038215600041
1506653342348,291.1038215600041
1506653342356,285.1038215600041
1506653342364,268.1038215600041
1506653342372,255.10382156000412
1506653342376,230.10382156000412
1506653342384,209.10382156000412
1506653342392,187.10382156000412
1506653342400,158.10382156000412
1506653342409,140.10382156000412
1506653342417,114.10382156000412
1506653342425,95.10382156000412
1506653342433,78.10382156000412
1506653342442,57.10382156000412
1506653342450,45.10382156000412
1506653342458,27.10382156000412
1506653342467,15.103821560004121
1506653342475,6.103821560004121
1506653342482,-6.896178439995879
1506653342491,-10.896178439995879
1506653342500,-18.89617843999588
1506653342508,-20.89617843999588
1506653342515,-20.89617843999588
1506653342523,-25.89617843999588
1506653342531,-19.89617843999588
1506653342535,-19.89617843999588
1506653342544,-14.896178439995879
1506653342552,-9.397660143604242
1506653342561,-5.380891021283219
1506653342569,4.829296206243555
1506653342577,6.622453149691182
1506653342585,14.81515502816427
1506653342593,20.067775663811403
1506653342601,18.067775663811403
1506653342610,23.067775663811403
1506653342618,20.067775663811403
1506653342626,20.067775663811403
1506653342634,19.067775663811403
1506653342643,12.067775663811403
1506653342651,13.067775663811403
1506653342659,5.067775663811403
1506653342668,1.0677756638114033
1506653342675,-2.9322243361885967
1506653342684,-11.932224336188597
1506653342691,-12.932224336188597
1506653342696,-21.932224336188597
1506653342704,-23.932224336188597
1506653342712,-26.932224336188597
1506653342720,-32.9322243361886
1506653342728,-30.932224336188597
1506653342736,-36.9322243361886
1506653342745,-36.9322243361886
1506653342753,-36.9322243361886
1506653342761,-40.9322243361886
1506653342769,-37.9322243361886
1506653342777,-40.9322243361886
1506653342786,-38.9322243361886
1506653342794,-36.9322243361886
1506653342802,-39.9322243361886
1506653342810,-33.9322243361886
1506653342818,-35.9322243361886
1506653342827,-34.9322243361886
1506653342834,-31.932224336188597
1506653342844,-34.9322243361886
1506653342852,-30.932224336188597
1506653342859,-33.9322243361886
1506653342863,-32.9322243361886
1506653342872,-31.932224336188597
1506653342880,-35.9322243361886
1506653342888,-32.9322243361886
1506653342896,-36.9322243361886
1506653342905,-35.9322243361886
1506653342913,-34.9322243361886
1506653342921,-39.9322243361886
1506653342929,-34.9322243361886
1506653342937,-34.9322243361886
1506653342945,-32.102945515643796
1506653342953,-23.642256727648544
1506653342962,-10.642256727648544
1506653342970,15.357743272351456
1506653342978,39.357743272351456
1506653342986,70.35774327235146
1506653342995,106.35774327235146
1506653343003,137.35774327235146
1506653343011,178.35774327235146
1506653343019,207.35774327235146
1506653343023,236.35774327235146
1506653343031,261.35774327235146
1506653343040,273.35774327235146
1506653343048,286.35774327235146
1506653343056,285.35774327235146
1506653343064,281.35774327235146
1506653343072,273.35774327235146
1506653343080,255.35774327235146
1506653343089,240.35774327235146
1506653343097,216.35774327235146
1506653343105,193.35774327235146
1506653343113,171.35774327235146
1506653343121,142.35774327235146
1506653343130,124.35774327235146
1506653343138,99.35774327235146
1506653343146,79.35774327235146
1506653343154,62.357743272351456
1506653343162,42.357743272351456
1506653343170,30.357743272351456
1506653343178,14.357743272351456
1506653343183,3.357743272351456
1506653343191,-5.642256727648544
1506653343199,-18.642256727648544
1506653343208,-19.642256727648544
1506653343215,-24.642256727648544
1506653343224,-26.642256727648544
1506653343232,-24.642256727648544
1506653343240,-27.642256727648544
1506653343249,-20.642256727648544
1506653343257,-18.642256727648544
1506653343265,-13.642256727648544
1506653343273,-2.916655647735354
1506653343281,-0.7843920038186525
1506653343289,9.548587327418545
1506653343297,13.97031675768551
1506653343306,18.00149632061101
1506653343314,24.00149632061101
1506653343322,22.00149632061101
1506653343330,28.00149632061101
1506653343338,24.00149632061101
1506653343343,20.00149632061101
1506653343351,18.00149632061101
1506653343359,10.001496320611011
1506653343367,7.001496320611011
1506653343375,-0.998503679388989
1506653343383,-5.998503679388989
1506653343391,-9.998503679388989
1506653343399,-18.99850367938899
1506653343408,-19.99850367938899
1506653343416,-26.99850367938899
1506653343425,-30.99850367938899
1506653343433,-31.99850367938899
1506653343441,-38.99850367938899
1506653343450,-35.99850367938899
1506653343457,-38.99850367938899
1506653343466,-38.99850367938899
1506653343474,-37.99850367938899
1506653343482,-40.99850367938899
1506653343490,-35.99850367938899
1506653343498,-36.99850367938899
1506653343502,-36.99850367938899
1506653343510,-32.99850367938899
1506653343519,-35.99850367938899
1506653343527,-30.99850367938899
1506653343535,-31.99850367938899
1506653343544,-31.99850367938899
1506653343552,-29.99850367938899
1506653343560,-31.99850367938899
1506653343568,-30.99850367938899
1506653343576,-33.99850367938899
1506653343584,-34.99850367938899
1506653343592,-33.99850367938899
1506653343601,-38.99850367938899
1506653343609,-34.99850367938899
1506653343617,-35.99850367938899
1506653343625,-30.99850367938899
1506653343634,-29.264139855809844
1506653343642,-21.264139855809844
1506653343650,-0.26413985580984445
1506653343657,20.735860144190156
1506653343662,46.735860144190156
1506653343671,80.73586014419016
1506653343679,111.73586014419016
1506653343687,149.73586014419016
1506653343695,181.73586014419016
1506653343703,211.73586014419016
1506653343711,240.73586014419016
1506653343720,257.73586014419016
1506653343728,276.73586014419016
1506653343736,281.73586014419016
1506653343744,280.73586014419016
1506653343753,278.73586014419016
1506653343760,263.73586014419016
1506653343768,250.73586014419016
1506653343776,229.73586014419016
1506653343785,207.73586014419016
1506653343793,187.73586014419016
1506653343801,158.73586014419016
1506653343809,138.73586014419016
1506653343817,114.73586014419016
1506653343822,91.73586014419016
1506653343830,75.73586014419016
1506653343838,54.735860144190156
1506653343847,40.735860144190156
1506653343855,22.735860144190156
1506653343862,7.7358601441901556
1506653343871,-2.2641398558098444
1506653343879,-16.264139855809844
1506653343887,-20.264139855809844
1506653343895,-28.264139855809844
1506653343903,-32.264139855809844
1506653343912,-30.264139855809844
1506653343920,-33.264139855809844
1506653343928,-27.264139855809844
1506653343936,-24.264139855809844
1506653343945,-20.264139855809844
1506653343953,-11.264139855809844
1506653343961,-5.409625597015804
1506653343969,5.072182119572233
1506653343977,11.473552709978037
1506653343981,16.940541227161418
1506653343989,23.940541227161418
1506653343998,22.940541227161418
1506653344006,26.940541227161418
1506653344014,24.940541227161418
1506653344022,21.940541227161418
1506653344030,22.940541227161418
1506653344038,13.940541227161418
1506653344047,12.940541227161418
1506653344055,5.940541227161418
1506653344063,-1.0594587728385818
1506653344071,-3.059458772838582
1506653344079,-14.059458772838582
1506653344089,-16.059458772838582
1506653344097,-22.059458772838582
1506653344105,-28.059458772838582
1506653344113,-29.059458772838582
1506653344121,-36.05945877283858
1506653344129,-36.05945877283858
1506653344137,-37.05945877283858
1506653344143,-41.05945877283858
1506653344150,-39.05945877283858
1506653344158,-43.05945877283858
1506653344167,-39.05945877283858
1506653344174,-40.05945877283858
1506653344182,-41.05945877283858
1506653344191,-37.05945877283858
1506653344199,-40.05945877283858
1506653344207,-36.05945877283858
1506653344215,-37.05945877283858
1506653344223,-37.05945877283858
1506653344231,-34.05945877283858
1506653344240,-38.05945877283858
1506653344248,-35.05945877283858
1506653344256,-37.05945877283858
1506653344264,-39.05945877283858
1506653344272,-35.05945877283858
1506653344281,-37.05945877283858
1506653344289,-29.059458772838582
1506653344297,-28.24999726237604
1506653344301,-16.24999726237604
1506653344310,5.750002737623959
1506653344318,25.75000273762396
1506653344326,57.75000273762396
1506653344334,90.75000273762396
1506653344342,124.75000273762396
1506653344350,161.75000273762396
1506653344359,191.75000273762396
1506653344367,224.75000273762396
1506653344375,249.75000273762396
1506653344383,267.75000273762396
1506653344391,282.75000273762396
1506653344399,283.75000273762396
1506653344408,284.75000273762396
1506653344416,276.75000273762396
1506653344424,260.75000273762396
1506653344432,245.75000273762396
1506653344440,221.75000273762396
1506653344448,199.75000273762396
1506653344456,174.75000273762396
1506653344461,146.75000273762396
1506653344469,128.75000273762396
1506653344477,99.75000273762396
1506653344486,80.75000273762396
1506653344493,59.75000273762396
1506653344502,38.75000273762396
1506653344510,24.75000273762396
1506653344518,6.750002737623959
1506653344526,-5.249997262376041
1506653344534,-16.24999726237604
1506653344543,-25.24999726237604
1506653344551,-26.24999726237604
1506653344559,-35.24999726237604
1506653344567,-34.24999726237604
1506653344575,-34.24999726237604
1506653344583,-34.24999726237604
1506653344591,-26.24999726237604
1506653344600,-23.24999726237604
1506653344608,-14.249997262376041
1506653344616,-7.249997262376041
1506653344624,-2.147315297846262
1506653344628,10.378999520737636
1506653344636,14.799711888302625
1506653344645,22.799711888302625
1506653344653,25.799711888302625
1506653344661,24.799711888302625
1506653344669,28.799711888302625
1506653344678,24.799711888302625
1506653344686,23.799711888302625
1506653344694,20.799711888302625
1506653344702,13.799711888302625
1506653344710,11.799711888302625
1506653344718,1.7997118883026246
1506653344727,-1.2002881116973754
1506653344735,-8.200288111697375
1506653344743,-15.200288111697375
1506653344752,-16.200288111697375
1506653344760,-23.200288111697375
1506653344768,-26.200288111697375
1506653344776,-28.200288111697375
1506653344784,-34.200288111697375
1506653344788,-31.200288111697375
1506653344796,-36.200288111697375
1506653344805,-35.200288111697375
1506653344813,-36.200288111697375
1506653344821,-38.200288111697375
1506653344829,-33.200288111697375
1506653344837,-37.200288111697375
1506653344846,-34.200288111697375
1506653344855,-33.200288111697375
1506653344862,-35.200288111697375
1506653344870,-29.200288111697375
1506653344879,-33.200288111697375
1506653344887,-30.200288111697375
1506653344894,-29.200288111697375
1506653344903,-32.200288111697375
1506653344912,-30.200288111697375
1506653344919,-34.200288111697375
1506653344927,-32.200288111697375
1506653344936,-32.200288111697375
1506653344944,-33.200288111697375
1506653344948,-28.200288111697375
1506653344957,-31.47930084067889
1506653344965,-31.306241240623933
1506653344973,-18.306241240623933
1506653344981,-2.306241240623933
1506653344989,26.693758759376067
1506653344997,52.69375875937607
1506653345006,88.69375875937607
1506653345014,124.69375875937607
1506653345022,159.69375875937607
1506653345031,198.69375875937607
1506653345038,227.69375875937607
1506653345048,256.69375875937607
1506653345055,276.69375875937607
1506653345064,285.69375875937607
1506653345071,294.69375875937607
1506653345079,287.69375875937607
1506653345087,279.69375875937607
1506653345095,264.69375875937607
1506653345103,241.69375875937607
1506653345108,222.69375875937607
1506653345117,192.69375875937607
1506653345125,167.69375875937607
1506653345133,140.69375875937607
1506653345141,112.69375875937607
1506653345149,91.69375875937607
1506653345158,65.69375875937607
1506653345165,46.69375875937607
1506653345173,29.693758759376067
1506653345181,9.693758759376067
1506653345189,-2.306241240623933
1506653345199,-18.306241240623933
1506653345207,-27.306241240623933
1506653345216,-33.30624124062393
1506653345224,-41.30624124062393
1506653345232,-40.30624124062393
1506653345240,-44.30624124062393
1506653345248,-39.30624124062393
1506653345256,-33.30624124062393
1506653345263,-30.306241240623933
1506653345268,-19.306241240623933
1506653345276,-15.306241240623933
1506653345284,-5.306241240623933
1506653345292,8.613640103731655
1506653345300,14.740798541341462
1506653345309,24.740798541341462
1506653345317,26.740798541341462
1506653345325,30.740798541341462
1506653345333,32.74079854134146
1506653345341,29.740798541341462
1506653345350,31.740798541341462
1506653345358,23.740798541341462
1506653345366,20.740798541341462
1506653345374,16.740798541341462
1506653345383,5.740798541341462
1506653345390,1.7407985413414622
1506653345400,-9.259201458658538
1506653345408,-14.259201458658538
1506653345415,-19.259201458658538
1506653345424,-29.259201458658538
1506653345428,-30.259201458658538
1506653345436,-38.25920145865854
1506653345444,-39.25920145865854
1506653345452,-40.25920145865854
1506653345460,-45.25920145865854
1506653345468,-41.25920145865854
1506653345476,-44.25920145865854
1506653345485,-42.25920145865854
1506653345493,-41.25920145865854
1506653345501,-43.25920145865854
1506653345509,-39.25920145865854
1506653345517,-41.25920145865854
1506653345526,-39.25920145865854
1506653345534,-37.25920145865854
1506653345542,-40.25920145865854
1506653345552,-36.25920145865854
1506653345560,-40.25920145865854
1506653345567,-39.25920145865854
1506653345576,-38.25920145865854
1506653345583,-42.25920145865854
1506653345587,-39.25920145865854
1506653345595,-43.25920145865854
1506653345604,-39.25920145865854
1506653345612,-33.25920145865854
1506653345620,-28.936731898140522
1506653345628,-9.936731898140522
1506653345636,7.063268101859478
1506653345644,33.06326810185948
1506653345653,66.06326810185948
1506653345661,97.06326810185948
1506653345669,139.06326810185948
1506653345677,172.06326810185948
1506653345686,207.06326810185948
1506653345694,240.06326810185948
1506653345702,262.0632681018595
1506653345710,284.0632681018595
1506653345718,293.0632681018595
1506653345727,298.0632681018595
1506653345734,299.0632681018595
1506653345744,285.0632681018595
1506653345747,273.0632681018595
1506653345756,249.06326810185948
1506653345763,227.06326810185948
1506653345771,203.06326810185948
1506653345779,173.06326810185948
1506653345788,151.06326810185948
1506653345796,122.06326810185948
1506653345804,99.06326810185948
1506653345812,78.06326810185948
1506653345820,53.06326810185948
1506653345829,39.06326810185948
1506653345837,20.063268101859478
1506653345846,6.063268101859478
1506653345853,-5.936731898140522
1506653345861,-20.936731898140522
1506653345869,-24.936731898140522
1506653345878,-32.93673189814052
1506653345886,-35.93673189814052
1506653345894,-34.93673189814052
1506653345902,-35.93673189814052
1506653345906,-29.936731898140522
1506653345914,-27.936731898140522
1506653345922,-19.936731898140522
1506653345931,-11.936731898140522
1506653345940,-6.529677052842715
1506653345948,7.244440162127319
1506653345956,13.640957983762348
1506653345964,21.024570574434847
1506653345972,28.024570574434847
1506653345980,28.024570574434847
1506653345988,33.02457057443485
1506653345996,30.024570574434847
1506653346004,28.024570574434847
1506653346013,26.024570574434847
1506653346022,17.024570574434847
1506653346030,14.024570574434847
1506653346038,5.024570574434847
1506653346046,-1.975429425565153
1506653346055,-4.975429425565153
1506653346062,-16.975429425565153
1506653346066,-19.975429425565153
1506653346074,-26.975429425565153
1506653346082,-31.975429425565153
1506653346091,-32.97542942556515
1506653346099,-39.97542942556515
1506653346107,-38.97542942556515
1506653346115,-42.97542942556515
1506653346123,-42.97542942556515
1506653346131,-41.97542942556515
1506653346140,-44.97542942556515
1506653346148,-40.97542942556515
1506653346157,-42.97542942556515
1506653346165,-41.97542942556515
1506653346173,-36.97542942556515
1506653346181,-40.97542942556515
1506653346189,-35.97542942556515
1506653346197,-36.97542942556515
1506653346207,-35.97542942556515
1506653346214,-32.97542942556515
1506653346222,-35.97542942556515
1506653346226,-32.97542942556515
1506653346235,-35.97542942556515
1506653346243,-35.97542942556515
1506653346251,-33.97542942556515
1506653346259,-39.97542942556515
1506653346267,-36.97542942556515
1506653346276,-39.97542942556515
1506653346284,-41.97542942556515
1506653346292,-38.97542942556515
1506653346300,-42.97542942556515
1506653346308,-40.97542942556515
1506653346316,-40.97542942556515
1506653346324,-35.97542942556515
1506653346333,-31.60200249378937
1506653346341,-21.60200249378937
1506653346349,3.397997506210629
1506653346357,27.39799750621063
1506653346366,59.39799750621063
1506653346374,99.39799750621063
1506653346381,135.39799750621063
1506653346390,179.39799750621063
1506653346394,217.39799750621063
1506653346402,251.39799750621063
1506653346410,283.39799750621063
1506653346419,303.39799750621063
1506653346427,322.39799750621063
1506653346435,327.39799750621063
1506653346443,326.39799750621063
1506653346451,322.39799750621063
1506653346459,304.39799750621063
1506653346468,290.39799750621063
1506653346476,266.39799750621063
1506653346484,240.39799750621063
1506653346492,219.39799750621063
1506653346500,188.39799750621063
1506653346509,165.39799750621063
1506653346517,139.39799750621063
1506653346525,116.39799750621063
1506653346533,98.39799750621063
1506653346541,77.39799750621063
1506653346550,63.39799750621063
1506653346554,46.39799750621063
1506653346562,31.39799750621063
1506653346570,23.39799750621063
1506653346578,7.397997506210629
1506653346586,1.3979975062106291
1506653346594,-8.60200249378937
1506653346602,-16.60200249378937
1506653346611,-17.60200249378937
1506653346619,-24.60200249378937
1506653346627,-22.60200249378937
1506653346635,-23.60200249378937
1506653346644,-21.60200249378937
1506653346652,-14.60200249378937
1506653346660,-14.270319963077043
1506653346668,-3.0358620081924528
1506653346676,1.1977005017116653
1506653346684,8.25991315876928
1506653346693,16.655175953856542
1506653346701,17.303464683169523
1506653346709,25.361823972254683
1506653346713,25.361823972254683
1506653346721,24.361823972254683
1506653346729,25.361823972254683
1506653346738,18.361823972254683
1506653346746,17.361823972254683
1506653346754,11.361823972254683
1506653346762,4.361823972254683
1506653346770,2.820924119137146
1506653346778,-2.6813193291442303
1506653346787,-0.9985316358009868
1506653346795,-3.275036598712745
1506653346804,-10.275036598712745
1506653346812,-12.275036598712745
1506653346820,-20.275036598712745
1506653346828,-21.275036598712745
1506653346837,-26.275036598712745
1506653346845,-29.275036598712745
1506653346853,-27.275036598712745
1506653346861,-33.275036598712745
1506653346869,-30.275036598712745
1506653346873,-30.275036598712745
1506653346881,-31.275036598712745
1506653346889,-27.275036598712745
1506653346897,-30.275036598712745
1506653346906,-25.275036598712745
1506653346914,-26.275036598712745
1506653346923,-26.275036598712745
1506653346931,-22.275036598712745
1506653346939,-24.275036598712745
1506653346948,-21.275036598712745
1506653346955,-21.275036598712745
1506653346963,-22.275036598712745
1506653346971,-18.275036598712745
1506653346979,-22.275036598712745
1506653346988,-18.275036598712745
1506653346996,-19.275036598712745
1506653347004,-20.275036598712745
1506653347012,-18.275036598712745
1506653347020,-22.275036598712745
1506653347028,-20.275036598712745
1506653347032,-22.275036598712745
1506653347042,-24.275036598712745
1506653347050,-23.275036598712745
1506653347058,-28.275036598712745
1506653347066,-26.275036598712745
1506653347074,-28.275036598712745
1506653347082,-30.275036598712745
1506653347090,-25.275036598712745
1506653347098,-34.455768216016
1506653347106,-32.13613775539386
1506653347114,-18.13613775539386
1506653347123,1.863862244606139
1506653347131,32.86386224460614
1506653347139,60.86386224460614
1506653347148,101.86386224460614
1506653347156,140.86386224460614
1506653347164,179.86386224460614
1506653347172,223.86386224460614
1506653347180,253.86386224460614
1506653347188,286.86386224460614
1506653347193,310.86386224460614
1506653347201,323.86386224460614
1506653347209,335.86386224460614
1506653347217,333.86386224460614
1506653347226,335.86386224460614
1506653347233,322.86386224460614
1506653347241,298.86386224460614
1506653347250,279.86386224460614
1506653347258,249.86386224460614
1506653347266,225.86386224460614
1506653347274,199.86386224460614
1506653347282,171.86386224460614
1506653347291,151.86386224460614
1506653347299,126.86386224460614
1506653347307,109.86386224460614
1506653347315,92.86386224460614
1506653347324,74.86386224460614
1506653347332,62.86386224460614
1506653347340,44.86386224460614
1506653347349,34.86386224460614
1506653347353,20.86386224460614
1506653347362,8.863862244606139
1506653347370,3.863862244606139
1506653347377,-9.136137755393861
1506653347385,-13.136137755393861
1506653347394,-17.13613775539386
1506653347402,-22.13613775539386
1506653347410,-18.13613775539386
1506653347418,-21.13613775539386
1506653347427,-14.943176860992764
1506653347434,-11.446626236228212
1506653347442,-7.625428472465046
1506653347451,0.6628673908968494
1506653347459,1.453283778225682
1506653347467,9.030309788248246
1506653347475,13.273258021615675
1506653347484,15.469562082898904
1506653347492,22.650175689548462
1506653347500,19.650175689548462
1506653347508,20.650175689548462
1506653347512,19.650175689548462
1506653347521,14.650175689548462
1506653347529,13.650175689548462
1506653347537,5.650175689548462
1506653347545,2.650175689548462
1506653347554,1.3870348565283166
1506653347562,-2.6434380387735814
1506653347570,-0.5710765664556448
1506653347578,-6.521519972660826
1506653347586,-4.609377086811378
1506653347594,-3.9323383033840287
1506653347602,-6.568581622065324
1506653347610,-5.981594047350143
1506653347618,-10.981594047350143
1506653347627,-8.981594047350143
1506653347635,-10.981594047350143
1506653347643,-13.981594047350143
1506653347652,-10.981594047350143
1506653347660,-14.981594047350143
1506653347668,-11.981594047350143
1506653347672,-11.981594047350143
1506653347680,-12.981594047350143
1506653347688,-8.981594047350143
1506653347696,-11.981594047350143
1506653347704,-8.981594047350143
1506653347713,-7.981594047350143
1506653347721,-7.981594047350143
1506653347730,-3.9815940473501428
1506653347737,-6.981594047350143
1506653347746,-4.981594047350143
1506653347754,-4.981594047350143
1506653347762,-7.981594047350143
1506653347771,-3.9815940473501428
1506653347779,-7.981594047350143
1506653347787,-5.981594047350143
1506653347795,-4.981594047350143
1506653347803,-7.981594047350143
1506653347811,-5.981594047350143
1506653347819,-7.981594047350143
1506653347827,-5.981594047350143
1506653347831,-5.981594047350143
1506653347839,-8.981594047350143
1506653347848,-4.981594047350143
1506653347856,-10.981594047350143
1506653347865,-8.981594047350143
1506653347873,-9.981594047350143
1506653347881,-13.981594047350143
1506653347889,-10.981594047350143
1506653347897,-15.981594047350143
1506653347906,-13.981594047350143
1506653347914,-21.824241483809146
1506653347922,-31.348358708205353
1506653347930,-35.69915353128613
1506653347938,-25.672004527707315
1506653347947,-3.6720045277073154
1506653347955,21.327995472292685
1506653347962,50.327995472292685
1506653347970,92.32799547229268
1506653347979,128.32799547229268
1506653347986,170.32799547229268
1506653347991,211.32799547229268
1506653347999,244.32799547229268
1506653348007,279.3279954722927
1506653348015,301.3279954722927
1506653348024,320.3279954722927
1506653348032,330.3279954722927
1506653348041,329.3279954722927
1506653348049,328.3279954722927
1506653348057,313.3279954722927
1506653348065,298.3279954722927
1506653348074,278.3279954722927
1506653348083,251.32799547229268
1506653348090,230.32799547229268
1506653348099,201.32799547229268
1506653348107,176.32799547229268
1506653348115,154.32799547229268
1506653348122,129.32799547229268
1506653348131,113.32799547229268
1506653348139,92.32799547229268
1506653348147,78.32799547229268
1506653348155,65.32799547229268
1506653348160,48.327995472292685
1506653348167,38.327995472292685
1506653348175,22.327995472292685
1506653348184,14.327995472292685
1506653348192,5.3279954722926846
1506653348200,-5.6720045277073154
1506653348208,-7.6720045277073154
1506653348216,-16.672004527707315
1506653348225,-16.672004527707315
1506653348233,-15.672004527707315
1506653348241,-18.198814745361005
1506653348249,-12.273911067023278
1506653348258,-11.367019476118571
1506653348267,-6.240463149382379
1506653348275,0.5319856969412626
1506653348282,3.1115358768187207
1506653348291,10.591574287356991
1506653348299,11.314990959959289
1506653348306,15.724887927257782
1506653348315,19.16547142383706
1506653348319,16.7313209375842
1506653348327,20.7313209375842
1506653348335,15.7313209375842
1506653348343,13.7313209375842
1506653348352,11.7313209375842
1506653348360,4.731320937584201
1506653348368,3.6998827646629593
1506653348376,-0.3975743435641448
1506653348384,-0.24946573651124027
1506653348393,-0.9818210455717917
1506653348401,-4.7186239214186685
1506653348409,-2.576538793383122
1506653348417,-6.659634418657504
1506653348427,-5.0549128143619555
1506653348433,-2.8295018403800896
1506653348441,-7.030690471195328
1506653348450,-2.6867508035311403
1506653348460,-6.68675080353114
1506653348466,-4.68675080353114
1506653348475,-5.68675080353114
1506653348479,-7.68675080353114
1506653348487,-3.6867508035311403
1506653348495,-7.68675080353114
1506653348503,-5.68675080353114
1506653348511,-2.6867508035311403
1506653348519,-5.68675080353114
1506653348528,-0.6867508035311403
1506653348536,-1.6867508035311403
1506653348544,1.3132491964688597
1506653348553,3.3132491964688597
1506653348561,2.3132491964688597
1506653348569,6.31324919646886
1506653348577,3.3132491964688597
1506653348585,3.3132491964688597
1506653348594,4.31324919646886
1506653348602,0.31324919646885974
1506653348610,4.31324919646886
1506653348618,0.31324919646885974
1506653348626,0.31324919646885974
1506653348634,1.3132491964688597
1506653348638,-2.6867508035311403
1506653348647,0.31324919646885974
1506653348655,-2.6867508035311403
1506653348663,-2.6867508035311403
1506653348671,-1.6867508035311403
1506653348679,-6.68675080353114
1506653348688,-2.6867508035311403
1506653348695,-6.68675080353114
1506653348704,-6.68675080353114
1506653348712,-4.68675080353114
1506653348720,-9.68675080353114
1506653348728,-5.68675080353114
1506653348737,-9.68675080353114
1506653348745,-9.68675080353114
1506653348753,-8.68675080353114
1506653348761,-12.68675080353114
1506653348769,-13.526239567085952
1506653348778,-25.188968207529967
1506653348786,-30.60213520155071
1506653348794,-36.892093034978416
1506653348798,-34.234047645814314
1506653348806,-8.234047645814314
1506653348814,15.765952354185686
1506653348822,48.765952354185686
1506653348830,88.76595235418569
1506653348839,126.76595235418569
1506653348847,172.76595235418569
1506653348855,209.76595235418569
1506653348863,246.76595235418569
1506653348872,279.7659523541857
1506653348880,300.7659523541857
1506653348888,321.7659523541857
1506653348896,327.7659523541857
1506653348904,329.7659523541857
1506653348913,324.7659523541857
1506653348921,307.7659523541857
1506653348929,292.7659523541857
1506653348937,267.7659523541857
1506653348946,243.76595235418569
1506653348954,219.76595235418569
1506653348958,189.76595235418569
1506653348966,167.76595235418569
1506653348974,140.76595235418569
1506653348982,118.76595235418569
1506653348990,100.76595235418569
1506653348999,79.76595235418569
1506653349007,67.76595235418569
1506653349015,50.765952354185686
1506653349023,38.765952354185686
1506653349031,28.765952354185686
1506653349039,14.765952354185686
1506653349048,9.765952354185686
1506653349056,-0.23404764581431436
1506653349064,-7.234047645814314
1506653349072,-10.234047645814314
1506653349080,-19.234047645814314
1506653349088,-17.234047645814314
1506653349097,-21.234047645814314
1506653349105,-20.234047645814314
1506653349113,-15.076323970073076
1506653349117,-14.590730255094172
1506653349125,-6.143027157500512
1506653349133,-1.3189319105662207
1506653349142,4.283531290155054
1506653349150,13.734818562913688
1506653349158,13.849704639949266
1506653349166,22.03651046689356
1506653349174,21.34005169708837
1506653349183,22.34005169708837
1506653349192,22.34005169708837
1506653349200,16.34005169708837
1506653349208,17.34005169708837
1506653349216,10.34005169708837
1506653349224,5.34005169708837
1506653349232,3.8784836649932686
1506653349241,-1.9196761976746757
1506653349249,0.5069808941244673
1506653349257,-2.97814413136075
1506653349266,-4.507275177465203
1506653349273,-3.202705040492333
1506653349277,-6.172098931710821
1506653349286,-3.505696569705947
1506653349294,-10.505696569705947
1506653349302,-12.505696569705947
1506653349310,-11.505696569705947
1506653349318,-16.505696569705947
1506653349327,-13.505696569705947
1506653349334,-14.505696569705947
1506653349343,-14.505696569705947
1506653349351,-10.505696569705947
1506653349360,-13.505696569705947
1506653349367,-8.505696569705947
1506653349375,-10.505696569705947
1506653349384,-10.505696569705947
1506653349392,-6.505696569705947
1506653349400,-9.505696569705947
1506653349408,-5.505696569705947
1506653349416,-7.505696569705947
1506653349425,-7.505696569705947
1506653349432,-3.505696569705947
1506653349437,-7.505696569705947
1506653349445,-4.505696569705947
1506653349454,-5.505696569705947
1506653349462,-5.505696569705947
1506653349470,-3.505696569705947
1506653349478,-6.505696569705947
1506653349487,-4.505696569705947
1506653349495,-8.505696569705947
1506653349503,-10.505696569705947
1506653349511,-8.505696569705947
1506653349519,-14.505696569705947
1506653349527,-11.505696569705947
1506653349535,-15.505696569705947
1506653349544,-17.505696569705947
1506653349552,-16.505696569705947
1506653349560,-20.505696569705947
1506653349568,-18.505696569705947
1506653349576,-22.505696569705947
1506653349584,-21.505696569705947
1506653349593,-21.98119301175933
1506653349597,-33.506518870732464
1506653349605,-35.72545968306309
1506653349613,-29.350962591554378
1506653349621,-10.350962591554378
1506653349630,19.649037408445622
1506653349638,45.64903740844562
1506653349646,84.64903740844562
1506653349655,120.64903740844562
1506653349663,159.64903740844562
1506653349671,197.64903740844562
1506653349679,225.64903740844562
1506653349687,256.6490374084456
1506653349695,274.6490374084456
1506653349703,286.6490374084456
1506653349711,295.6490374084456
1506653349720,288.6490374084456
1506653349728,283.6490374084456
1506653349736,268.6490374084456
1506653349744,248.64903740844562
1506653349753,230.64903740844562
1506653349761,202.64903740844562
1506653349765,180.64903740844562
1506653349773,154.64903740844562
1506653349781,128.64903740844562
1506653349790,107.64903740844562
1506653349798,81.64903740844562
1506653349806,67.64903740844562
1506653349814,47.64903740844562
1506653349822,30.649037408445622
1506653349830,19.649037408445622
1506653349838,2.649037408445622
1506653349847,-4.350962591554378
1506653349855,-14.350962591554378
1506653349863,-22.350962591554378
1506653349871,-22.350962591554378
1506653349879,-28.350962591554378
1506653349887,-26.350962591554378
1506653349895,-27.350962591554378
1506653349904,-25.350962591554378
1506653349913,-18.350962591554378
1506653349921,-17.350962591554378
1506653349926,-5.911255437580905
1506653349934,-1.861150158553471
1506653349941,5.172432024101795
1506653349950,16.20719246201378
1506653349958,18.91623620726915
1506653349966,24.91623620726915
1506653349973,25.91623620726915
1506653349981,25.91623620726915
1506653349990,27.91623620726915
1506653349998,21.91623620726915
1506653350006,21.91623620726915
1506653350014,14.91623620726915
1506653350023,8.91623620726915
1506653350031,5.916236207269151
1506653350039,-2.2259586246539698
1506653350047,-0.36637807053432425
1506653350056,-3.370174868361744
1506653350064,-5.3868964743516585
1506653350072,-3.553606882822635
1506653350080,-7.989955987195515
1506653350084,-3.7947103786437424
1506653350093,-6.044029074277773
1506653350101,-10.044029074277773
1506653350109,-9.044029074277773
1506653350117,-15.044029074277773
1506653350126,-11.044029074277773
1506653350133,-14.044029074277773
1506653350141,-15.044029074277773
1506653350150,-10.044029074277773
1506653350158,-14.044029074277773
1506653350166,-11.044029074277773
1506653350174,-10.044029074277773
1506653350182,-11.044029074277773
1506653350190,-5.044029074277773
1506653350199,-10.044029074277773
1506653350207,-6.044029074277773
1506653350215,-6.044029074277773
1506653350224,-8.044029074277773
1506653350232,-2.0440290742777734
1506653350240,-7.044029074277773
1506653350245,-4.044029074277773
1506653350254,-6.044029074277773
1506653350261,-7.044029074277773
1506653350268,-4.044029074277773
1506653350277,-7.044029074277773
1506653350286,-4.044029074277773
1506653350293,-6.044029074277773
1506653350301,-8.044029074277773
1506653350309,-5.044029074277773
1506653350317,-10.044029074277773
1506653350326,-6.044029074277773
1506653350334,-8.044029074277773
1506653350342,-11.044029074277773
1506653350351,-8.044029074277773
1506653350359,-13.044029074277773
1506653350366,-11.044029074277773
1506653350375,-13.044029074277773
1506653350383,-16.044029074277773
1506653350391,-12.044029074277773
1506653350399,-19.628937210497043
1506653350403,-23.62480758754765
1506653350411,-32.28825156486914
1506653350420,-39.69590174266068
1506653350429,-22.371291177927503
1506653350436,-4.371291177927503
1506653350444,24.628708822072497
1506653350454,58.6287088220725
1506653350462,93.6287088220725
1506653350469,136.6287088220725
1506653350478,171.6287088220725
1506653350486,211.6287088220725
1506653350494,244.6287088220725
1506653350502,269.6287088220725
1506653350510,292.6287088220725
1506653350518,301.6287088220725
1506653350526,310.6287088220725
1506653350534,308.6287088220725
1506653350543,297.6287088220725
1506653350551,287.6287088220725
1506653350559,267.6287088220725
1506653350563,247.6287088220725
1506653350572,224.6287088220725
1506653350580,198.6287088220725
1506653350588,177.6287088220725
1506653350597,150.6287088220725
1506653350604,131.6287088220725
1506653350614,109.6287088220725
1506653350622,90.6287088220725
1506653350630,78.6287088220725
1506653350638,60.6287088220725
1506653350646,50.6287088220725
1506653350654,39.6287088220725
1506653350662,26.628708822072497
1506653350670,20.628708822072497
1506653350678,8.628708822072497
1506653350686,3.628708822072497
1506653350694,-3.371291177927503
1506653350702,-9.371291177927503
1506653350711,-8.371291177927503
1506653350719,-15.371291177927503
1506653350723,-13.371291177927503
1506653350731,-11.227377597943189
1506653350739,-11.208537884830719
1506653350748,-3.6912657961398736
1506653350756,-3.681759566548749
1506653350764,1.7726199666990965
1506653350772,7.019039337660956
1506653350780,9.438831081099522
1506653350789,15.6848166518933
1506653350798,13.742435278241942
1506653350806,18.287671904082856
1506653350813,17.838498915514435
1506653350822,15.459054888535775
1506653350830,15.459054888535775
1506653350838,7.459054888535775
1506653350846,5.703591734454108
1506653350854,4.4735689050535825
1506653350863,-1.3645076287361917
1506653350870,1.0634336531448412
1506653350878,-4.372430530448071
1506653350883,-1.798385270396409
1506653350891,-3.332088945974249
1506653350899,-6.079325046757447
1506653350907,-2.131103094179707
1506653350915,-7.561192857345759
1506653350924,-5.423980736629915
1506653350932,-4.751842882815822
1506653350940,-7.751842882815822
1506653350949,-4.751842882815822
1506653350957,-8.751842882815822
1506653350966,-7.751842882815822
1506653350975,-6.751842882815822
1506653350982,-8.751842882815822
1506653350991,-3.751842882815822
1506653350998,-6.751842882815822
1506653351007,-4.751842882815822
1506653351015,-4.751842882815822
1506653351023,-6.751842882815822
1506653351031,-1.7518428828158221
1506653351039,-5.751842882815822
1506653351043,-3.751842882815822
1506653351051,-3.751842882815822
1506653351059,-6.751842882815822
1506653351068,-2.751842882815822
1506653351076,-6.751842882815822
1506653351084,-4.751842882815822
1506653351092,-4.751842882815822
1506653351100,-6.751842882815822
1506653351108,-3.751842882815822
1506653351116,-9.751842882815822
1506653351124,-7.751842882815822
1506653351133,-8.751842882815822
1506653351142,-12.751842882815822
1506653351150,-9.751842882815822
1506653351158,-15.751842882815822
1506653351166,-15.751842882815822
1506653351174,-15.751842882815822
1506653351183,-19.751842882815822
1506653351190,-15.751842882815822
1506653351198,-20.751842882815822
1506653351203,-17.751842882815822
1506653351211,-17.751842882815822
1506653351219,-19.751842882815822
1506653351227,-13.751842882815822
1506653351235,-18.92785882447589
1506653351243,-23.947883243400156
1506653351252,-29.641788481695016
1506653351260,-33.509180797137276
1506653351268,-12.509180797137276
1506653351276,6.490819202862724
1506653351284,38.490819202862724
1506653351293,72.49081920286272
1506653351301,106.49081920286272
1506653351309,149.49081920286272
1506653351317,184.49081920286272
1506653351325,224.49081920286272
1506653351335,259.4908192028627
1506653351342,283.4908192028627
1506653351351,308.4908192028627
1506653351359,320.4908192028627
1506653351362,328.4908192028627
1506653351371,329.4908192028627
1506653351379,318.4908192028627
1506653351387,308.4908192028627
1506653351396,288.4908192028627
1506653351403,267.4908192028627
1506653351412,245.49081920286272
1506653351420,218.49081920286272
1506653351428,199.49081920286272
1506653351436,173.49081920286272
1506653351444,152.49081920286272
1506653351453,134.49081920286272
1506653351461,112.49081920286272
1506653351468,101.49081920286272
1506653351477,84.49081920286272
1506653351485,72.49081920286272
1506653351494,61.490819202862724
1506653351501,47.490819202862724
1506653351509,40.490819202862724
1506653351517,26.490819202862724
1506653351526,19.490819202862724
1506653351530,12.490819202862724
1506653351538,2.490819202862724
1506653351546,1.490819202862724
1506653351555,-5.509180797137276
1506653351563,-7.301689195974689
1506653351571,-8.242817048782001
1506653351579,-11.175183733461324
1506653351587,-5.6896531337156375
1506653351595,-7.461205525966477
1506653351603,-1.7687144505711672
1506653351611,1.8494860052751392
1506653351619,1.3422026146654957
1506653351628,8.686514529118313
1506653351636,7.504765945821646
1506653351644,10.676645766228091
1506653351653,13.540369786640213
1506653351661,9.56615802145484
1506653351669,13.364072112830002
1506653351677,8.509241193139246
1506653351685,7.732649245665698
1506653351689,4.983288051026648
1506653351697,1.7111243836698122
1506653351706,3.7845255438695062
1506653351714,-1.8846507669992434
1506653351722,-1.391068336377657
1506653351730,-0.8291739211414324
1506653351738,-4.28839540027667
1506653351746,-0.8504108566814921
1506653351755,-4.5871113034081645
1506653351763,-3.558928443376942
1506653351772,-1.813237981061718
1506653351780,-5.383868678598276
1506653351788,-1.291270516783925
1506653351797,-3.5426945414056377
1506653351805,-3.5426945414056377
1506653351813,-2.5426945414056377
1506653351821,-6.542694541405638
1506653351829,-2.5426945414056377
1506653351837,-5.542694541405638
1506653351845,-4.542694541405638
1506653351850,-1.5426945414056377
1506653351858,-5.542694541405638
1506653351866,-1.5426945414056377
1506653351874,-2.5426945414056377
1506653351882,-2.5426945414056377
1506653351890,-0.5426945414056377
1506653351898,-4.542694541405638
1506653351908,0.45730545859436234
1506653351916,-1.5426945414056377
1506653351924,-1.5426945414056377
1506653351932,0.45730545859436234
1506653351940,-3.5426945414056377
1506653351948,0.45730545859436234
1506653351956,-2.5426945414056377
1506653351965,-3.5426945414056377
1506653351973,-0.5426945414056377
1506653351981,-4.542694541405638
1506653351989,-1.5426945414056377
1506653351997,-3.5426945414056377
1506653352005,-4.542694541405638
1506653352009,-2.5426945414056377
1506653352018,-6.542694541405638
1506653352026,-2.5426945414056377
1506653352034,-6.542694541405638
1506653352042,-6.542694541405638
1506653352051,-5.542694541405638
1506653352059,-10.542694541405638
1506653352067,-7.542694541405638
1506653352075,-12.542694541405638
1506653352083,-13.542694541405638
1506653352091,-11.542694541405638
1506653352100,-23.305918668452534
1506653352108,-25.858644972866784
1506653352116,-35.196169928723464
1506653352124,-40.377857280597595
1506653352132,-28.14943497168565
1506653352140,-7.1494349716856505
1506653352149,25.85056502831435
1506653352157,57.85056502831435
1506653352165,97.85056502831435
1506653352169,138.85056502831435
1506653352178,175.85056502831435
1506653352186,215.85056502831435
1506653352194,246.85056502831435
1506653352202,272.85056502831435
1506653352210,295.85056502831435
1506653352218,304.85056502831435
1506653352227,313.85056502831435
1506653352235,308.85056502831435
1506653352243,300.85056502831435
1506653352251,288.85056502831435
1506653352259,266.85056502831435
1506653352267,248.85056502831435
1506653352275,222.85056502831435
1506653352284,197.85056502831435
1506653352292,176.85056502831435
1506653352300,149.85056502831435
1506653352308,131.85056502831435
1506653352316,110.85056502831435
1506653352324,93.85056502831435
1506653352329,79.85056502831435
1506653352337,61.85056502831435
1506653352345,53.85056502831435
1506653352354,38.85056502831435
1506653352362,29.85056502831435
1506653352370,22.85056502831435
1506653352378,10.85056502831435
1506653352386,7.8505650283143495
1506653352394,-1.1494349716856505
1506653352402,-6.1494349716856505
1506653352410,-7.1494349716856505
1506653352419,-13.14943497168565
1506653352427,-11.14943497168565
1506653352435,-12.10050655613992
1506653352443,-10.99798491568572
1506653352452,-6.997546194129484
1506653352460,-6.5166184019239495
1506653352468,3.0533255387964573
1506653352476,5.12452144053168
1506653352484,8.445274812891057
1506653352488,15.738992135122771
1506653352497,12.811167778760307
1506653352505,17.810286301835788
1506653352513,16.13276862877217
1506653352521,16.11359341712773
1506653352529,16.11359341712773
1506653352537,8.113593417127731
1506653352546,8.212449066386455
1506653352554,4.161777259102109
1506653352563,1.5378432293117612
1506653352571,1.2012586376637273
1506653352579,-3.9962524779613773
1506653352587,-3.202541544375947
1506653352595,-5.556290752705991
1506653352604,-7.180033672939658
1506653352612,-5.1748996586101725
1506653352620,-8.617102795775054
1506653352629,-7.617102795775054
1506653352636,-11.617102795775054
1506653352644,-11.617102795775054
1506653352649,-8.617102795775054
1506653352657,-13.617102795775054
1506653352665,-10.617102795775054
1506653352672,-12.617102795775054
1506653352680,-12.617102795775054
1506653352689,-9.617102795775054
1506653352697,-11.617102795775054
1506653352707,-7.617102795775054
1506653352713,-8.617102795775054
1506653352722,-7.617102795775054
1506653352731,-4.617102795775054
1506653352739,-6.617102795775054
1506653352747,-2.617102795775054
1506653352755,-5.617102795775054
1506653352763,-4.617102795775054
1506653352771,-1.617102795775054
1506653352779,-6.617102795775054
1506653352787,-4.617102795775054
1506653352796,-5.617102795775054
1506653352803,-7.617102795775054
1506653352808,-4.617102795775054
1506653352816,-8.617102795775054
1506653352824,-5.617102795775054
1506653352832,-7.617102795775054
1506653352841,-9.617102795775054
1506653352849,-8.617102795775054
1506653352857,-13.617102795775054
1506653352866,-12.617102795775054
1506653352873,-14.617102795775054
1506653352881,-16.617102795775054
1506653352889,-15.617102795775054
1506653352898,-19.617102795775054
1506653352906,-17.617102795775054
1506653352914,-18.617102795775054
1506653352922,-24.91995269777061
1506653352931,-29.365376624237683
1506653352939,-37.41089214212661
1506653352948,-31.805506515346963
1506653352956,-14.805506515346963
1506653352964,11.194493484653037
1506653352967,45.19449348465304
1506653352977,75.19449348465304
1506653352985,115.19449348465304
1506653352992,150.19449348465304
1506653353001,184.19449348465304
1506653353008,218.19449348465304
1506653353016,239.19449348465304
1506653353025,261.19449348465304
1506653353034,272.19449348465304
1506653353042,277.19449348465304
1506653353050,279.19449348465304
1506653353058,266.19449348465304
1506653353066,256.19449348465304
1506653353074,237.19449348465304
1506653353082,215.19449348465304
1506653353090,194.19449348465304
1506653353099,166.19449348465304
1506653353107,145.19449348465304
1506653353115,121.19449348465304
1506653353123,98.19449348465304
1506653353128,81.19449348465304
1506653353135,60.19449348465304
1506653353143,47.19449348465304
1506653353153,32.19449348465304
1506653353160,19.194493484653037
1506653353169,12.194493484653037
1506653353177,-1.8055065153469627
1506653353185,-6.805506515346963
1506653353193,-13.805506515346963
1506653353201,-20.805506515346963
1506653353209,-21.805506515346963
1506653353217,-27.805506515346963
1506653353226,-24.805506515346963
1506653353234,-23.805506515346963
1506653353242,-21.805506515346963
1506653353251,-12.592043408564678
1506653353259,-10.625573584311837
1506653353267,0.43162090931843977
1506653353275,6.313789296627704
1506653353283,11.302819329835415
1506653353291,19.63047090645074
1506653353295,22.763706850580206
1506653353304,27.763706850580206
1506653353313,27.763706850580206
1506653353321,24.763706850580206
1506653353328,26.763706850580206
1506653353337,18.763706850580206
1506653353345,17.763706850580206
1506653353353,9.763706850580206
1506653353361,1.8457411428074124
1506653353369,2.847168869082509
1506653353377,-3.8614481700612373
1506653353386,-2.4516841984944335
1506653353393,-5.088789457939129
1506653353402,-7.923856367068311
1506653353410,-5.087351343074772
1506653353418,-13.087351343074772
1506653353426,-14.087351343074772
1506653353434,-18.087351343074772
1506653353442,-21.087351343074772
1506653353451,-18.087351343074772
1506653353455,-23.087351343074772
1506653353463,-20.087351343074772
1506653353471,-21.087351343074772
1506653353480,-23.087351343074772
1506653353488,-18.087351343074772
1506653353497,-21.087351343074772
1506653353506,-17.087351343074772
1506653353513,-17.087351343074772
1506653353521,-18.087351343074772
1506653353529,-13.087351343074772
1506653353537,-16.087351343074772
1506653353546,-13.087351343074772
1506653353554,-13.087351343074772
1506653353562,-15.087351343074772
1506653353570,-10.087351343074772
1506653353578,-14.087351343074772
1506653353586,-11.087351343074772
1506653353594,-12.087351343074772
1506653353602,-15.087351343074772
1506653353610,-12.087351343074772
1506653353614,-16.087351343074772
1506653353623,-15.087351343074772
1506653353631,-15.087351343074772
1506653353639,-18.087351343074772
1506653353647,-15.087351343074772
1506653353656,-21.087351343074772
1506653353665,-19.087351343074772
1506653353672,-21.087351343074772
1506653353681,-24.087351343074772
1506653353689,-21.087351343074772
1506653353697,-26.087351343074772
1506653353705,-22.087351343074772
1506653353713,-27.105821285827005
1506653353721,-36.47528224746844
1506653353729,-29.334228916437553
1506653353737,-14.334228916437553
1506653353746,12.665771083562447
1506653353754,41.66577108356245
1506653353763,75.66577108356245
1506653353770,115.66577108356245
1506653353775,149.66577108356245
1506653353783,187.66577108356245
1506653353791,221.66577108356245
1506653353799,247.66577108356245
1506653353808,275.66577108356245
1506653353816,288.66577108356245
1506653353824,299.66577108356245
1506653353832,302.66577108356245
1506653353840,296.66577108356245
1506653353849,290.66577108356245
1506653353857,272.66577108356245
1506653353865,256.66577108356245
1506653353874,234.66577108356245
1506653353881,209.66577108356245
1506653353889,190.66577108356245
1506653353897,163.66577108356245
1506653353906,143.66577108356245
1506653353914,123.66577108356245
1506653353922,104.66577108356245
1506653353930,92.66577108356245
1506653353934,74.66577108356245
1506653353943,63.66577108356245
1506653353951,51.66577108356245
1506653353959,37.66577108356245
1506653353967,31.665771083562447
1506653353975,18.665771083562447
1506653353983,12.665771083562447
1506653353992,6.665771083562447
1506653354000,-4.334228916437553
1506653354008,-3.334228916437553
1506653354016,-10.334228916437553
1506653354024,-10.334228916437553
1506653354032,-10.232680318800305
1506653354041,-11.537412598181277
1506653354050,-5.1055774646140435
1506653354057,-5.3891698343228995
1506653354065,1.6398650696904724
1506653354073,4.816307375092265
1506653354082,6.9178938309369755
1506653354090,15.177157126022223
1506653354094,13.61111611477844
1506653354102,18.17733808702559
1506653354110,18.528388741108643
1506653354118,13.58202218590094
1506653354127,12.711034814420032
1506653354135,7.977349757111256
1506653354143,7.066243159751082
1506653354151,4.6620263136393305
1506653354160,-0.3951086829738415
1506653354168,0.7188947018299245
1506653354176,-6.177011629284436
1506653354184,-4.258381666231799
1506653354192,-6.685920515754333
1506653354201,-14.685920515754333
1506653354209,-14.685920515754333
1506653354217,-20.685920515754333
1506653354225,-20.685920515754333
1506653354233,-20.685920515754333
1506653354242,-22.685920515754333
1506653354250,-17.685920515754333
1506653354254,-17.685920515754333
1506653354262,-13.685920515754333
1506653354270,-9.685920515754333
1506653354278,-9.685920515754333
1506653354287,-1.6859205157543329
1506653354295,-3.685920515754333
1506653354303,-0.6859205157543329
1506653354311,1.3140794842456671
1506653354319,-1.6859205157543329
1506653354328,0.3140794842456671
1506653354336,-3.685920515754333
1506653354344,-1.6859205157543329
1506653354352,-1.6859205157543329
1506653354360,-4.685920515754333
1506653354368,0.3140794842456671
1506653354376,-1.6859205157543329
1506653354385,1.3140794842456671
1506653354394,2.314079484245667
1506653354401,0.3140794842456671
1506653354410,4.314079484245667
1506653354413,1.3140794842456671
1506653354422,3.314079484245667
1506653354430,4.314079484245667
1506653354438,1.3140794842456671
1506653354446,4.314079484245667
1506653354454,-0.6859205157543329
1506653354463,-0.6859205157543329
1506653354471,-3.685920515754333
1506653354479,-9.685920515754333
1506653354487,-7.685920515754333
1506653354495,-15.36596761396902
1506653354503,-21.70038791291148
1506653354511,-27.636005644523607
1506653354520,-38.34685414242597
1506653354528,-24.016072549463615
1506653354536,-9.016072549463615
1506653354544,15.983927450536385
1506653354553,46.983927450536385
1506653354561,77.98392745053638
1506653354569,119.98392745053638
1506653354573,156.98392745053638
1506653354581,196.98392745053638
1506653354589,234.98392745053638
1506653354597,261.9839274505364
1506653354606,290.9839274505364
1506653354614,304.9839274505364
1506653354622,315.9839274505364
1506653354630,319.9839274505364
1506653354638,311.9839274505364
1506653354646,306.9839274505364
1506653354655,288.9839274505364
1506653354663,273.9839274505364
1506653354671,254.98392745053638
1506653354679,229.98392745053638
1506653354687,211.98392745053638
1506653354696,186.98392745053638
1506653354704,165.98392745053638
1506653354712,144.98392745053638
1506653354720,120.98392745053638
1506653354728,105.98392745053638
1506653354736,84.98392745053638
1506653354740,70.98392745053638
1506653354749,55.983927450536385
1506653354757,38.983927450536385
1506653354766,26.983927450536385
1506653354773,9.983927450536385
1506653354781,-2.0160725494636154
1506653354790,-9.016072549463615
1506653354798,-20.016072549463615
1506653354806,-19.016072549463615
1506653354814,-23.016072549463615
1506653354823,-24.016072549463615
1506653354831,-20.016072549463615
1506653354839,-20.016072549463615
1506653354847,-15.016072549463615
1506653354856,-15.865960635616602
1506653354864,-8.678885674877506
1506653354873,3.0306667625899877
1506653354881,5.336968650127915
1506653354889,15.471047907528884
1506653354897,17.924357645461328
1506653354901,19.158399817364
1506653354909,22.158399817364
1506653354917,17.158399817364
1506653354926,19.158399817364
1506653354934,14.158399817364
1506653354942,14.158399817364
1506653354950,13.158399817364
1506653354959,7.158399817364
1506653354967,9.158399817364
1506653354975,3.510267565070592
1506653354983,2.281391963485646
1506653354991,5.341363970289137
1506653354999,1.544544441408334
1506653355008,5.730880357894591
1506653355016,-5.269119642105409
1506653355024,-13.269119642105409
1506653355032,-20.26911964210541
1506653355040,-32.26911964210541
1506653355048,-34.26911964210541
1506653355056,-37.26911964210541
1506653355061,-35.26911964210541
1506653355069,-31.26911964210541
1506653355077,-30.26911964210541
1506653355085,-22.26911964210541
1506653355093,-18.26911964210541
1506653355102,-12.269119642105409
1506653355110,-3.2691196421054087
1506653355118,-1.2691196421054087
1506653355126,6.730880357894591
1506653355134,7.730880357894591
1506653355142,8.730880357894591
1506653355150,12.730880357894591
1506653355159,8.730880357894591
1506653355168,11.730880357894591
1506653355176,6.730880357894591
1506653355183,5.730880357894591
1506653355192,5.730880357894591
1506653355200,-1.2691196421054087
1506653355208,0.7308803578945913
1506653355216,-4.269119642105409
1506653355220,-8.269119642105409
1506653355228,-7.269119642105409
1506653355236,-13.269119642105409
1506653355245,-11.269119642105409
1506653355253,-16.26911964210541
1506653355262,-18.26911964210541
1506653355270,-18.26911964210541
1506653355277,-23.26911964210541
1506653355286,-21.26911964210541
1506653355294,-25.26911964210541
1506653355302,-24.26911964210541
1506653355310,-24.7029327010963
1506653355319,-34.826242715776345
1506653355327,-36.75335919912453
1506653355335,-25.036900508337055
1506653355343,-3.0369005083370553
1506653355352,26.963099491662945
1506653355360,55.963099491662945
1506653355368,95.96309949166294
1506653355375,135.96309949166294
1506653355380,171.96309949166294
1506653355388,209.96309949166294
1506653355396,236.96309949166294
1506653355404,265.96309949166294
1506653355412,283.96309949166294
1506653355421,294.96309949166294
1506653355429,301.96309949166294
1506653355437,296.96309949166294
1506653355445,291.96309949166294
1506653355454,275.96309949166294
1506653355462,256.96309949166294
1506653355470,238.96309949166294
1506653355478,211.96309949166294
1506653355486,191.96309949166294
1506653355495,166.96309949166294
1506653355504,141.96309949166294
1506653355511,124.96309949166294
1506653355520,101.96309949166294
1506653355528,86.96309949166294
1506653355536,71.96309949166294
1506653355540,57.963099491662945
1506653355548,48.963099491662945
1506653355556,33.963099491662945
1506653355564,26.963099491662945
1506653355572,15.963099491662945
1506653355580,6.963099491662945
1506653355589,1.9630994916629447
1506653355597,-7.036900508337055
1506653355605,-10.036900508337055
1506653355613,-15.036900508337055
1506653355621,-18.036900508337055
1506653355629,-16.036900508337055
1506653355638,-19.133173047686
1506653355646,-12.721931749145426
1506653355654,-11.341072445810141
1506653355663,-6.782391278093371
1506653355671,1.6999486399752755
1506653355679,4.904190908584042
1506653355687,11.923555179856578
1506653355695,14.204372447463982
1506653355700,18.07223921441181
1506653355708,24.246504886845173
1506653355716,19.7210948210236
1506653355724,21.7210948210236
1506653355732,16.7210948210236
1506653355740,14.721094821023598
1506653355749,10.721094821023598
1506653355757,0.7210948210235983
1506653355765,1.6392154696461603
1506653355773,-1.1817295271021635
1506653355781,-3.885085190220366
1506653355789,-2.6096216430137815
1506653355797,-6.483075754165043
1506653355805,-8.2471074039791
1506653355814,-14.2471074039791
1506653355822,-17.2471074039791
1506653355830,-16.2471074039791
1506653355838,-21.2471074039791
1506653355847,-19.2471074039791
1506653355855,-20.2471074039791
1506653355860,-22.2471074039791
1506653355868,-18.2471074039791
1506653355876,-22.2471074039791
1506653355883,-17.2471074039791
1506653355892,-18.2471074039791
1506653355900,-18.2471074039791
1506653355909,-14.2471074039791
1506653355917,-18.2471074039791
1506653355925,-14.2471074039791
1506653355933,-14.2471074039791
1506653355941,-15.2471074039791
1506653355950,-11.2471074039791
1506653355958,-16.2471074039791
1506653355966,-11.2471074039791
1506653355974,-12.2471074039791
1506653355982,-14.2471074039791
1506653355990,-10.2471074039791
1506653355998,-15.2471074039791
1506653356006,-12.2471074039791
1506653356014,-14.2471074039791
1506653356019,-15.2471074039791
1506653356027,-13.2471074039791
1506653356036,-20.2471074039791
1506653356044,-18.2471074039791
1506653356051,-22.2471074039791
1506653356060,-25.2471074039791
1506653356068,-23.2471074039791
1506653356077,-30.2471074039791
1506653356085,-27.2471074039791
1506653356093,-27.2471074039791
1506653356101,-26.2471074039791
1506653356109,-29.661128626423874
1506653356117,-38.70856543975634
1506653356126,-20.459220200326342
1506653356134,-1.4592202003263424
1506653356142,24.540779799673658
1506653356150,57.54077979967366
1506653356158,88.54077979967366
1506653356167,128.54077979967366
1506653356174,164.54077979967366
1506653356179,196.54077979967366
1506653356187,230.54077979967366
1506653356195,252.54077979967366
1506653356203,273.54077979967366
1506653356213,284.54077979967366
1506653356220,287.54077979967366
1506653356229,288.54077979967366
1506653356237,275.54077979967366
1506653356244,263.54077979967366
1506653356253,243.54077979967366
1506653356261,220.54077979967366
1506653356268,199.54077979967366
1506653356277,170.54077979967366
1506653356286,149.54077979967366
1506653356294,125.54077979967366
1506653356302,102.54077979967366
1506653356310,84.54077979967366
1506653356318,63.54077979967366
1506653356326,51.54077979967366
1506653356334,37.54077979967366
1506653356342,24.540779799673658
1506653356347,16.540779799673658
1506653356355,3.5407797996736576
1506653356363,-2.4592202003263424
1506653356371,-10.459220200326342
1506653356379,-17.459220200326342
1506653356388,-18.459220200326342
1506653356395,-23.459220200326342
1506653356404,-21.459220200326342
1506653356412,-20.459220200326342
1506653356420,-18.459220200326342
1506653356428,-9.528726290173438
1506653356436,-8.434715094967942
1506653356444,1.1156147389767739
1506653356453,8.3816881452654
1506653356461,16.03472286690146
1506653356469,25.313934654740308
1506653356477,23.58955180456269
1506653356486,29.997049598044327
1506653356494,28.997049598044327
1506653356502,22.997049598044327
1506653356506,20.997049598044327
1506653356514,12.997049598044327
1506653356523,9.997049598044327
1506653356531,2.9970495980443275
1506653356539,-7.0029504019556725
1506653356547,-13.002950401955673
1506653356556,-27.002950401955673
1506653356565,-34.00295040195567
1506653356572,-42.00295040195567
1506653356580,-52.00295040195567
1506653356588,-56.00295040195567
1506653356596,-64.00295040195567
1506653356605,-63.00295040195567
1506653356613,-65.00295040195567
1506653356621,-68.00295040195567
1506653356629,-64.00295040195567
1506653356637,-69.00295040195567
1506653356646,-69.00295040195567
1506653356654,-74.00295040195567
1506653356662,-88.00295040195567
1506653356667,-90.00295040195567
1506653356674,-96.00295040195567
1506653356683,-94.00295040195567
1506653356691,-93.00295040195567
1506653356699,-90.00295040195567
1506653356707,-80.00295040195567
1506653356715,-80.00295040195567
1506653356723,-76.00295040195567
1506653356733,-75.00295040195567
1506653356740,-73.00295040195567
1506653356748,-67.00295040195567
1506653356758,-67.00295040195567
1506653356766,-53.00295040195567
1506653356774,-31.002950401955673
1506653356781,-16.002950401955673
1506653356789,3.9970495980443275
1506653356797,14.997049598044327
1506653356806,29.997049598044327
1506653356813,34.51351145283871
1506653356821,29.753226542016932
1506653356826,32.45293905759587
1506653356834,22.45293905759587
1506653356842,17.45293905759587
1506653356850,7.45293905759587
1506653356859,-5.54706094240413
1506653356867,-6.54706094240413
1506653356875,-1.54706094240413
1506653356883,11.45293905759587
1506653356891,25.45293905759587
1506653356900,42.45293905759587
1506653356909,72.45293905759587
1506653356916,99.45293905759587
1506653356925,133.45293905759587
1506653356933,169.45293905759587
1506653356940,199.45293905759587
1506653356949,234.45293905759587
1506653356957,254.45293905759587
1506653356965,276.45293905759587
1506653356973,292.45293905759587
1506653356981,294.45293905759587
1506653356986,297.45293905759587
1506653356994,287.45293905759587
1506653357002,277.45293905759587
1506653357010,263.45293905759587
1506653357018,238.45293905759587
1506653357026,217.45293905759587
1506653357034,186.45293905759587
1506653357043,153.63054266492668
1506653357051,123.46591303556994
1506653357060,87.7224694814497
1506653357068,61.31764138814361
1506653357076,29.151693796807535
1506653357084,7.876051132399255
1506653357093,-6.978591623506816
1506653357100,-22.214841375405
1506653357108,-28.35200709151735
1506653357117,-37.684888219651555
1506653357125,-39.92582320280968
1506653357133,-37.92582320280968
1506653357141,-37.92582320280968
1506653357146,-28.92582320280968
1506653357154,-30.92582320280968
1506653357162,-25.92582320280968
1506653357169,-20.92582320280968
1506653357178,-13.925823202809681
1506653357187,-3.9258232028096813
1506653357195,-9.925823202809681
1506653357203,-10.925823202809681
