time,value
1506652694131,-1.6871599288994048
1506652694139,-4.705506954921191
1506652694147,-2.7055069549211908
1506652694155,-0.7055069549211908
1506652694163,-4.705506954921191
1506652694171,1.2944930450788092
1506652694180,-1.7055069549211908
1506652694188,-0.7055069549211908
1506652694196,1.2944930450788092
1506652694202,-1.7055069549211908
1506652694209,3.2944930450788092
1506652694217,1.2944930450788092
1506652694225,1.2944930450788092
1506652694233,3.2944930450788092
1506652694241,-1.7055069549211908
1506652694249,3.2944930450788092
1506652694258,-0.7055069549211908
1506652694266,-0.7055069549211908
1506652694274,2.2944930450788092
1506652694282,-1.8101805735914809
1506652694290,2.1722525788196094
1506652694298,-1.860939849828128
1506652694307,-0.08623161528362289
1506652694315,2.3957907182207805
1506652694323,-2.6042092817792195
1506652694331,3.3957907182207805
1506652694339,-0.6042092817792195
1506652694347,0.3957907182207805
1506652694355,6.3957907182207805
1506652694360,4.3957907182207805
1506652694368,13.39579071822078
1506652694376,16.39579071822078
1506652694384,23.39579071822078
1506652694392,32.39579071822078
1506652694401,36.39579071822078
1506652694409,48.39579071822078
1506652694417,52.92312719048999
1506652694425,58.55075713416028
1506652694433,65.3103549384046
1506652694441,62.74278516551408
1506652694449,67.82642222200604
1506652694458,63.367819076660226
1506652694466,60.45212986153439
1506652694474,58.51099293703629
1506652694482,48.644944595072786
1506652694491,45.70882617826635
1506652694500,35.82674090858478
1506652694508,28.308745593643494
1506652694516,23.07469576487722
1506652694520,10.07469576487722
1506652694529,8.07469576487722
1506652694536,-2.9253042351227805
1506652694545,-8.92530423512278
1506652694554,-10.92530423512278
1506652694561,-20.92530423512278
1506652694569,-20.92530423512278
1506652694577,-26.92530423512278
1506652694585,-27.92530423512278
1506652694594,-27.92530423512278
1506652694602,-32.92530423512278
1506652694610,-27.92530423512278
1506652694617,-28.92530423512278
1506652694626,-25.92530423512278
1506652694634,-20.92530423512278
1506652694642,-21.92530423512278
1506652694650,-13.92530423512278
1506652694658,-11.92530423512278
1506652694667,-7.46774401131654
1506652694675,-1.1732590914152183
1506652694679,-1.2911738217336506
1506652694687,5.965934941397393
1506652694695,8.34779734777851
1506652694704,10.510992937036292
1506652694712,16.654735578386635
1506652694720,13.186507763704924
1506652694728,19.186507763704924
1506652694737,15.186507763704924
1506652694745,15.186507763704924
1506652694753,17.186507763704924
1506652694761,11.186507763704924
1506652694769,15.186507763704924
1506652694778,11.186507763704924
1506652694786,9.186507763704924
1506652694794,9.186507763704924
1506652694802,4.186507763704924
1506652694810,7.186507763704924
1506652694818,2.186507763704924
1506652694827,1.186507763704924
1506652694835,3.186507763704924
1506652694843,-2.813492236295076
1506652694847,1.186507763704924
1506652694855,-2.901355260327307
1506652694864,-4.901355260327307
1506652694872,-2.9260635851041457
1506652694880,-8.081349419861056
1506652694888,-4.229640938076329
1506652694896,-7.248240950115758
1506652694906,-7.321517740229126
1506652694914,-4.345264421613365
1506652694921,-9.579319310100175
1506652694930,-3.580304413240242
1506652694937,-6.819524783546115
1506652694946,-7.857653847767153
1506652694954,-2.864183761181721
1506652694962,-8.014765615956264
1506652694970,-2.0557196329780822
1506652694978,-4.145629717940949
1506652694987,-4.145629717940949
1506652694995,-1.145629717940949
1506652695003,-4.145629717940949
1506652695008,0.8543702820590511
1506652695016,-2.145629717940949
1506652695024,-1.145629717940949
1506652695032,1.854370282059051
1506652695040,-2.145629717940949
1506652695048,1.854370282059051
1506652695056,0.8543702820590511
1506652695064,-0.14562971794094892
1506652695074,3.854370282059051
1506652695081,-1.145629717940949
1506652695089,3.854370282059051
1506652695098,0.8543702820590511
1506652695106,-0.14562971794094892
1506652695114,2.854370282059051
1506652695122,-2.145629717940949
1506652695130,1.854370282059051
1506652695138,-0.14562971794094892
1506652695146,-1.1702921027064122
1506652695154,1.800349051883643
1506652695162,-3.843256213728182
1506652695167,-2.0121198528344166
1506652695175,-3.0121198528344166
1506652695183,-3.0121198528344166
1506652695191,2.9878801471655834
1506652695199,0.9878801471655834
1506652695209,9.987880147165583
1506652695217,11.987880147165583
1506652695224,16.987880147165583
1506652695232,27.987880147165583
1506652695241,30.987880147165583
1506652695250,42.98788014716558
1506652695258,47.98788014716558
1506652695266,53.98788014716558
1506652695274,61.74663702102532
1506652695281,60.384611521946056
1506652695290,64.84623345493839
1506652695298,61.51279972073496
1506652695306,59.35068218446378
1506652695314,57.4130700094953
1506652695322,47.36315685692318
1506652695327,45.428547976538084
1506652695335,36.532135058569224
1506652695343,27.51480183853164
1506652695351,22.550924207513674
1506652695359,10.550924207513674
1506652695367,7.550924207513674
1506652695375,-1.449075792486326
1506652695384,-8.449075792486326
1506652695392,-9.449075792486326
1506652695400,-19.449075792486326
1506652695410,-19.449075792486326
1506652695418,-24.449075792486326
1506652695425,-28.449075792486326
1506652695434,-26.449075792486326
1506652695442,-32.449075792486326
1506652695450,-26.449075792486326
1506652695459,-27.449075792486326
1506652695466,-26.449075792486326
1506652695474,-20.449075792486326
1506652695482,-21.449075792486326
1506652695486,-14.449075792486326
1506652695494,-12.449075792486326
1506652695503,-9.485198161468361
1506652695511,-0.4750057379100099
1506652695519,-1.4678649414307756
1506652695527,7.363156856923183
1506652695535,8.481945240841526
1506652695544,11.371463218491272
1506652695553,19.35068218446378
1506652695560,16.51279972073496
1506652695569,21.14879238507274
1506652695577,21.53302552692236
1506652695585,20.53302552692236
1506652695593,22.53302552692236
1506652695602,18.53302552692236
1506652695610,20.53302552692236
1506652695617,16.53302552692236
1506652695626,13.533025526922358
1506652695634,15.533025526922358
1506652695642,7.5330255269223585
1506652695646,10.533025526922358
1506652695654,5.5330255269223585
1506652695662,2.5330255269223585
1506652695670,3.5330255269223585
1506652695679,-2.4669744730776415
1506652695687,-1.4669744730776415
1506652695695,-4.4669744730776415
1506652695704,-6.662202662436357
1506652695712,-3.798910757599515
1506652695720,-8.884667552557744
1506652695728,-4.931529676584262
1506652695736,-6.956431541904351
1506652695744,-8.98223307099073
1506652695752,-4.039354077520784
1506652695760,-9.167389582349983
1506652695769,-5.417088098883539
1506652695777,-6.851207614927262
1506652695785,-7.851254403758958
1506652695794,-4.544877458467909
1506652695802,-8.649317815536222
1506652695806,-4.584736608058336
1506652695814,-5.628536781508728
1506652695822,-6.628536781508728
1506652695831,-1.6285367815087284
1506652695839,-6.628536781508728
1506652695847,-1.6285367815087284
1506652695855,-2.6285367815087284
1506652695863,-4.628536781508728
1506652695872,-0.6285367815087284
1506652695880,-3.6285367815087284
1506652695888,-0.6285367815087284
1506652695896,-1.6285367815087284
1506652695904,-2.6285367815087284
1506652695912,1.3714632184912716
1506652695921,-2.6285367815087284
1506652695929,1.3714632184912716
1506652695937,1.3714632184912716
1506652695946,-1.6285367815087284
1506652695954,4.371463218491272
1506652695962,-0.6285367815087284
1506652695966,1.3714632184912716
1506652695974,-1.0658896944014487
1506652695982,-6.084951322460199
1506652695990,-4.0569390829339795
1506652695999,-7.0569390829339795
1506652696007,-2.0569390829339795
1506652696015,0.9430609170660205
1506652696023,3.9430609170660205
1506652696031,15.94306091706602
1506652696039,18.94306091706602
1506652696047,32.94306091706602
1506652696055,41.94306091706602
1506652696064,49.94306091706602
1506652696072,65.94306091706602
1506652696080,70.94306091706602
1506652696088,81.94306091706602
1506652696096,86.26893915690829
1506652696105,86.48265246446107
1506652696113,89.92430739191201
1506652696120,84.34901258397895
1506652696125,81.83725150552635
1506652696134,75.63643916141154
1506652696142,64.80690065326525
1506652696150,58.00057442534046
1506652696158,45.00057442534046
1506652696167,38.00057442534046
1506652696175,28.00057442534046
1506652696183,14.00057442534046
1506652696191,9.00057442534046
1506652696199,-4.99942557465954
1506652696208,-10.99942557465954
1506652696215,-18.99942557465954
1506652696224,-27.99942557465954
1506652696232,-28.99942557465954
1506652696240,-37.99942557465954
1506652696249,-36.99942557465954
1506652696257,-38.99942557465954
1506652696265,-41.99942557465954
1506652696273,-36.99942557465954
1506652696281,-38.99942557465954
1506652696286,-32.99942557465954
1506652696293,-28.99942557465954
1506652696301,-25.99942557465954
1506652696310,-15.99942557465954
1506652696317,-13.167327474406079
1506652696326,-1.1930993467347548
1506652696335,5.326680148889352
1506652696343,7.636439161411545
1506652696351,21.820252588387802
1506652696359,21.349012583978947
1506652696367,29.225951693534626
1506652696375,32.48265246446107
1506652696384,31.94306091706602
1506652696392,36.94306091706602
1506652696400,30.94306091706602
1506652696408,31.94306091706602
1506652696416,30.94306091706602
1506652696425,24.94306091706602
1506652696433,25.94306091706602
1506652696441,17.94306091706602
1506652696445,15.94306091706602
1506652696453,10.94306091706602
1506652696461,3.9430609170660205
1506652696470,3.9430609170660205
1506652696478,-4.0569390829339795
1506652696486,-4.0569390829339795
1506652696494,-7.0569390829339795
1506652696502,-12.05693908293398
1506652696511,-10.05693908293398
1506652696519,-16.05693908293398
1506652696527,-14.05693908293398
1506652696535,-16.05693908293398
1506652696543,-20.05693908293398
1506652696552,-16.05693908293398
1506652696560,-21.05693908293398
1506652696568,-19.05693908293398
1506652696576,-18.05693908293398
1506652696585,-19.05693908293398
1506652696592,-14.05693908293398
1506652696601,-18.05693908293398
1506652696605,-15.05693908293398
1506652696613,-13.700517879642689
1506652696621,-17.774048306465374
1506652696629,-11.774048306465374
1506652696638,-15.774048306465374
1506652696646,-12.774048306465374
1506652696654,-11.774048306465374
1506652696662,-14.774048306465374
1506652696670,-7.7740483064653745
1506652696679,-11.774048306465374
1506652696687,-8.774048306465374
1506652696695,-7.7740483064653745
1506652696703,-9.774048306465374
1506652696711,-3.700517879642689
1506652696719,-5.530272593562586
1506652696727,-0.6403641743184494
1506652696736,2.4919620476204045
1506652696744,-1.3633811889895355
1506652696752,3.9187990683528824
1506652696760,-1.0812009316471176
1506652696768,0.9187990683528824
1506652696772,0.9187990683528824
1506652696780,-2.0812009316471176
1506652696789,3.9187990683528824
1506652696797,1.9187990683528824
1506652696806,9.918799068352882
1506652696814,16.918799068352882
1506652696822,24.918799068352882
1506652696830,42.91879906835288
1506652696838,51.91879906835288
1506652696846,70.91879906835288
1506652696854,87.91879906835288
1506652696862,98.63661881101046
1506652696871,115.35963582568155
1506652696879,122.97861606260886
1506652696887,131.2994821203573
1506652696895,133.32720147639873
1506652696904,131.97426440101702
1506652696912,134.6731109758772
1506652696920,121.33764678042382
1506652696928,112.13444044298865
1506652696932,98.26434972882521
1506652696940,79.35243461156199
1506652696948,70.35243461156199
1506652696957,50.35243461156199
1506652696965,35.35243461156199
1506652696973,20.35243461156199
1506652696981,1.3524346115619892
1506652696989,-7.647565388438011
1506652696997,-23.64756538843801
1506652697006,-34.64756538843801
1506652697014,-42.64756538843801
1506652697022,-53.64756538843801
1506652697030,-55.64756538843801
1506652697038,-63.64756538843801
1506652697047,-62.64756538843801
1506652697055,-60.64756538843801
1506652697063,-62.64756538843801
1506652697071,-53.64756538843801
1506652697079,-51.64756538843801
1506652697087,-42.64756538843801
1506652697092,-33.64756538843801
1506652697100,-27.64756538843801
1506652697109,-11.008432121060196
1506652697117,-3.865559557011352
1506652697125,10.202725533917373
1506652697132,22.673110975877194
1506652697141,25.974264401017024
1506652697149,38.39410891259405
1506652697157,43.43493455381525
1506652697165,47.978616062608864
1506652697173,54.91879906835288
1506652697182,50.91879906835288
1506652697190,52.91879906835288
1506652697198,46.91879906835288
1506652697207,44.91879906835288
1506652697215,41.91879906835288
1506652697222,32.91879906835288
1506652697231,31.918799068352882
1506652697239,20.918799068352882
1506652697247,16.918799068352882
1506652697251,12.918799068352882
1506652697259,2.9187990683528824
1506652697267,0.9187990683528824
1506652697276,-8.081200931647118
1506652697284,-10.081200931647118
1506652697292,-13.081200931647118
1506652697301,-21.081200931647118
1506652697309,-18.081200931647118
1506652697317,-24.081200931647118
1506652697326,-24.081200931647118
1506652697334,-23.081200931647118
1506652697342,-26.081200931647118
1506652697350,-21.081200931647118
1506652697358,-23.081200931647118
1506652697367,-23.861964057376326
1506652697375,-22.021383937391136
1506652697383,-25.565065446184747
1506652697391,-20.452983030256007
1506652697399,-25.941303166219427
1506652697407,-24.60589108740595
1506652697412,-21.025735598982976
1506652697420,-26.49944506061206
1506652697428,-19.49944506061206
1506652697436,-20.49944506061206
1506652697444,-17.49944506061206
1506652697452,-15.49944506061206
1506652697460,-17.49944506061206
1506652697469,-11.49944506061206
1506652697477,-12.578823098869975
1506652697485,-7.605891087405951
1506652697493,-3.941303166219427
1506652697501,-4.452983030256007
1506652697510,2.4349345538152534
1506652697518,0.1380359426236737
1506652697527,4.011257821326012
1506652697535,6.208652397837568
1506652697543,2.340720771040253
1506652697551,7.286501668152994
1506652697559,3.908170590910231
1506652697567,4.908170590910231
1506652697571,9.908170590910231
1506652697580,10.908170590910231
1506652697588,23.90817059091023
1506652697596,32.90817059091023
1506652697604,48.90817059091023
1506652697613,67.286501668153
1506652697621,82.0583917487362
1506652697629,105.34072077104025
1506652697637,121.01125782132601
1506652697645,139.13803594262367
1506652697653,153.547016969744
1506652697662,159.8817431584922
1506652697670,172.05869683378057
1506652697678,169.42117690113002
1506652697686,167.50055493938794
1506652697694,160.815639118381
1506652697702,142.72314497027344
1506652697710,128.17005370293964
1506652697718,107.61973331858587
1506652697726,87.58168040117721
1506652697730,70.58168040117721
1506652697739,44.58168040117721
1506652697747,28.58168040117721
1506652697756,4.581680401177209
1506652697764,-14.41831959882279
1506652697772,-28.41831959882279
1506652697780,-48.41831959882279
1506652697789,-55.41831959882279
1506652697797,-69.41831959882279
1506652697805,-76.41831959882279
1506652697813,-78.41831959882279
1506652697821,-85.41831959882279
1506652697830,-81.41831959882279
1506652697838,-80.41831959882279
1506652697846,-75.41831959882279
1506652697854,-66.41831959882279
1506652697862,-60.41831959882279
1506652697870,-45.41831959882279
1506652697879,-38.41831959882279
1506652697887,-25.82994629706036
1506652697891,-5.535985623992929
1506652697899,3.815639118381
1506652697907,22.937277450333795
1506652697915,33.421176901130025
1506652697924,43.88174315849221
1506652697932,54.21699782327494
1506652697940,60.14916274444414
1506652697948,70.0583917487362
1506652697956,68.90817059091023
1506652697965,67.90817059091023
1506652697972,68.90817059091023
1506652697981,59.90817059091023
1506652697989,59.90817059091023
1506652697997,48.90817059091023
1506652698006,40.90817059091023
1506652698014,35.90817059091023
1506652698021,23.90817059091023
1506652698029,19.90817059091023
1506652698038,9.908170590910231
1506652698046,1.9081705909102311
1506652698050,-1.0918294090897689
1506652698058,-11.091829409089769
1506652698066,-11.091829409089769
1506652698074,-18.09182940908977
1506652698083,-21.59353342079686
1506652698091,-20.9416082512638
1506652698100,-28.794021517684428
1506652698108,-25.85083725555586
1506652698117,-30.604043612874023
1506652698124,-35.19847888264172
1506652698133,-30.783002176725063
1506652698141,-35.11825684150779
1506652698149,-31.755277320942355
1506652698157,-31.062722549666205
1506652698165,-32.184360881619
1506652698173,-27.440962582451903
1506652698181,-34.53598562399293
1506652698190,-32.39325589508178
1506652698198,-34.82994629706036
1506652698206,-35.026485448564245
1506652698210,-29.026485448564245
1506652698219,-30.39325589508178
1506652698226,-19.53598562399293
1506652698234,-18.440962582451903
1506652698243,-16.754067046366572
1506652698251,-10.062722549666205
1506652698259,-10.755277320942355
1506652698267,-0.7830021767250628
1506652698275,-3.198478882641723
1506652698285,0.39595638712597747
1506652698292,5.149162744444141
1506652698301,1.9594646752446465
1506652698309,9.205978482315572
1506652698318,12.40646657920314
1506652698325,20.158952390299646
1506652698333,33.158952390299646
1506652698341,41.158952390299646
1506652698349,61.158952390299646
1506652698357,78.15895239029965
1506652698365,96.40646657920314
1506652698373,120.60918018703012
1506652698378,136.20597848231557
1506652698386,159.95946467524465
1506652698394,171.39595638712598
1506652698402,178.80152111735828
1506652698411,187.57558229583725
1506652698419,183.24472267905765
1506652698427,178.24593295363343
1506652698435,167.5590374175481
1506652698443,150.87634235398286
1506652698451,132.60674410491822
1506652698459,107.60674410491822
1506652698469,90.60674410491822
1506652698477,64.60674410491822
1506652698485,39.60674410491822
1506652698494,20.60674410491822
1506652698501,-6.393255895081779
1506652698509,-22.39325589508178
1506652698518,-41.39325589508178
1506652698525,-58.39325589508178
1506652698533,-67.39325589508178
1506652698538,-81.39325589508178
1506652698546,-85.39325589508178
1506652698554,-91.39325589508178
1506652698563,-92.39325589508178
1506652698571,-87.39325589508178
1506652698579,-87.39325589508178
1506652698587,-77.39325589508178
1506652698595,-69.39325589508178
1506652698603,-61.39325589508178
1506652698612,-43.9294304499341
1506652698620,-31.123657646017136
1506652698628,-11.754067046366572
1506652698636,0.48837787876772154
1506652698645,17.57558229583725
1506652698653,33.93954003906612
1506652698661,45.95946467524465
1506652698669,58.22343723219808
1506652698678,64.60918018703012
1506652698685,72.0133427310497
1506652698694,78.0133427310497
1506652698698,72.0133427310497
1506652698706,72.0133427310497
1506652698714,66.0133427310497
1506652698722,58.013342731049704
1506652698731,53.013342731049704
1506652698739,41.013342731049704
1506652698747,35.013342731049704
1506652698755,25.013342731049704
1506652698763,15.013342731049704
1506652698771,9.013342731049704
1506652698779,-2.986657268950296
1506652698787,-6.986657268950296
1506652698795,-15.986657268950296
1506652698804,-22.986657268950296
1506652698812,-22.986657268950296
1506652698820,-31.986657268950296
1506652698829,-35.39081981296988
1506652698837,-38.502230423277126
1506652698845,-42.77656276780192
1506652698853,-45.09000191457375
1506652698857,-51.06045996093388
1506652698865,-47.42441770416275
1506652698873,-52.91768594205405
1506652698881,-52.51162212123228
1506652698890,-49.123657646017136
1506652698898,-54.9294304499341
1506652698906,-49.115474834394945
1506652698915,-48.115474834394945
1506652698923,-46.115474834394945
1506652698931,-39.115474834394945
1506652698939,-40.115474834394945
1506652698947,-35.115474834394945
1506652698956,-32.9294304499341
1506652698964,-25.180804280642178
1506652698972,-18.51162212123228
1506652698980,-20.91768594205405
1506652698988,-9.060459960933883
1506652698996,-9.090001914573747
1506652699005,-2.8188819733588844
1506652699013,5.22343723219808
1506652699017,6.497769576722874
1506652699025,25.013342731049704
1506652699033,37.013342731049704
1506652699041,52.013342731049704
1506652699049,75.0133427310497
1506652699057,94.0133427310497
1506652699066,121.0133427310497
1506652699074,144.0133427310497
1506652699082,166.0133427310497
1506652699090,184.49776957672287
1506652699098,195.18111802664112
1506652699108,209.0057481256726
1506652699116,207.90999808542625
1506652699124,201.37494254034215
1506652699131,195.08231405794595
1506652699140,177.81919571935782
1506652699148,161.23024312685493
1506652699156,139.23024312685493
1506652699164,114.23024312685493
1506652699172,94.23024312685493
1506652699176,64.23024312685493
1506652699184,42.23024312685493
1506652699193,18.23024312685493
1506652699201,-6.76975687314507
1506652699210,-20.76975687314507
1506652699218,-40.76975687314507
1506652699226,-50.76975687314507
1506652699234,-63.76975687314507
1506652699242,-72.76975687314507
1506652699250,-73.76975687314507
1506652699258,-80.76975687314507
1506652699267,-77.76975687314507
1506652699275,-75.76975687314507
1506652699284,-72.76975687314507
1506652699291,-60.76975687314507
1506652699299,-57.76975687314507
1506652699308,-43.76975687314507
1506652699316,-32.29426723954646
1506652699324,-21.180804280642178
1506652699332,-0.7191357570241621
1506652699336,6.374942540342147
1506652699345,23.933023055591775
1506652699352,36.005748125672596
1506652699361,43.181118026641116
1506652699369,55.467944187117155
1506652699377,59.811968261324864
1506652699385,64.81196826132486
1506652699393,64.81196826132486
1506652699402,59.811968261324864
1506652699410,61.811968261324864
1506652699418,51.811968261324864
1506652699427,47.811968261324864
1506652699435,40.811968261324864
1506652699443,29.811968261324864
1506652699451,25.811968261324864
1506652699459,12.811968261324864
1506652699467,7.811968261324864
1506652699476,-0.18803173867513578
1506652699484,-10.188031738675136
1506652699492,-11.188031738675136
1506652699496,-22.188031738675136
1506652699504,-23.188031738675136
1506652699512,-26.188031738675136
1506652699520,-32.188031738675136
1506652699529,-29.543409582458196
1506652699537,-37.532055812882845
1506652699546,-36.783749125366796
1506652699554,-38.994251874327404
1506652699562,-43.03537356426261
1506652699570,-38.066976944408225
1506652699578,-45.51059394316928
1506652699586,-40.62505745965785
1506652699594,-38.71913575702416
1506652699603,-45.29426723954646
1506652699611,-37.39591350975684
1506652699619,-39.76975687314507
1506652699627,-33.76975687314507
1506652699635,-30.76975687314507
1506652699643,-29.76975687314507
1506652699651,-23.395913509756838
1506652699655,-26.294267239546457
1506652699664,-16.504976534371963
1506652699672,-13.719135757024162
1506652699680,-14.510593943169283
1506652699688,-4.066976944408225
1506652699696,-8.035373564262613
1506652699705,0.2162508746332037
1506652699713,2.466078720655446
1506652699721,3.467944187117155
1506652699729,15.010092811229299
1506652699737,20.0100928112293
1506652699745,37.0100928112293
1506652699754,55.0100928112293
1506652699762,75.0100928112293
1506652699770,103.0100928112293
1506652699778,125.0100928112293
1506652699786,155.0100928112293
1506652699795,178.46607872065545
1506652699803,195.2162508746332
1506652699811,210.9646264357374
1506652699816,214.80989165832557
1506652699824,215.48940605683072
1506652699832,210.49502346562804
1506652699840,197.98712103361765
1506652699848,187.21225731841804
1506652699856,163.21225731841804
1506652699864,142.21225731841804
1506652699873,117.21225731841804
1506652699881,88.21225731841804
1506652699889,67.21225731841804
1506652699897,37.21225731841804
1506652699906,15.21225731841804
1506652699914,-5.78774268158196
1506652699922,-28.78774268158196
1506652699930,-39.78774268158196
1506652699938,-55.78774268158196
1506652699947,-61.78774268158196
1506652699955,-66.78774268158196
1506652699963,-73.78774268158196
1506652699971,-70.78774268158196
1506652699975,-72.78774268158196
1506652699983,-66.78774268158196
1506652699991,-59.78774268158196
1506652700000,-55.78774268158196
1506652700008,-41.78774268158196
1506652700017,-35.78774268158196
1506652700025,-21.012878966382345
1506652700033,-8.504976534371963
1506652700041,1.4503365453495007
1506652700049,19.80989165832557
1506652700058,28.823985726976446
1506652700066,42.466078720655446
1506652700074,50.0100928112293
1506652700082,50.0100928112293
1506652700090,57.0100928112293
1506652700098,52.0100928112293
1506652700107,52.0100928112293
1506652700115,50.0100928112293
1506652700122,41.0100928112293
1506652700131,41.0100928112293
1506652700139,30.0100928112293
1506652700144,24.0100928112293
1506652700152,18.0100928112293
1506652700160,6.010092811229299
1506652700168,4.010092811229299
1506652700176,-6.989907188770701
1506652700184,-11.989907188770701
1506652700192,-16.9899071887707
1506652700200,-26.9899071887707
1506652700209,-26.9899071887707
1506652700217,-34.9899071887707
1506652700226,-36.9899071887707
1506652700234,-36.9899071887707
1506652700242,-42.9899071887707
1506652700251,-38.9899071887707
1506652700258,-39.9899071887707
1506652700266,-37.9899071887707
1506652700274,-35.9899071887707
1506652700283,-36.9899071887707
1506652700291,-29.9899071887707
1506652700299,-31.9899071887707
1506652700303,-26.9899071887707
1506652700312,-22.9899071887707
1506652700320,-28.396228847568295
1506652700328,-21.176014273023554
1506652700335,-25.19010834167443
1506652700344,-25.595853189546858
1506652700352,-21.595853189546858
1506652700360,-23.595853189546858
1506652700369,-16.595853189546858
1506652700377,-19.595853189546858
1506652700385,-15.560161807630891
1506652700393,-9.176014273023554
1506652700402,-10.396228847568295
1506652700410,0.3542658646596806
1506652700418,-2.8450400043147965
1506652700426,1.8753672659083236
1506652700434,3.957522657668278
1506652700442,-0.04247734233172196
1506652700451,3.957522657668278
1506652700459,0.957522657668278
1506652700463,1.957522657668278
1506652700471,3.957522657668278
1506652700479,3.957522657668278
1506652700488,14.957522657668278
1506652700496,21.957522657668278
1506652700504,37.95752265766828
1506652700512,59.95752265766828
1506652700521,79.95752265766828
1506652700529,111.95752265766828
1506652700537,137.95752265766828
1506652700545,163.87536726590832
1506652700553,191.18416122461844
1506652700561,205.35426586465968
1506652700569,221.6724856511857
1506652700578,226.6037711524317
1506652700586,222.4398381923691
1506652700594,218.40414681045314
1506652700602,201.61020687261896
1506652700611,190.61020687261896
1506652700618,165.61020687261896
1506652700623,141.61020687261896
1506652700631,117.61020687261896
1506652700639,85.61020687261896
1506652700648,62.61020687261896
1506652700655,33.61020687261896
1506652700664,10.61020687261896
1506652700672,-7.38979312738104
1506652700680,-29.38979312738104
1506652700688,-39.38979312738104
1506652700697,-54.38979312738104
1506652700705,-60.38979312738104
1506652700713,-62.38979312738104
1506652700721,-69.38979312738104
1506652700729,-64.38979312738104
1506652700737,-65.38979312738104
1506652700745,-61.38979312738104
1506652700754,-52.38979312738104
1506652700762,-49.38979312738104
1506652700770,-34.38979312738104
1506652700778,-29.38979312738104
1506652700783,-17.56016180763089
1506652700791,-1.8097082771206487
1506652700799,5.672485651185696
1506652700807,24.371198577415043
1506652700815,31.184161224618435
1506652700823,38.95752265766828
1506652700831,47.95752265766828
1506652700839,45.95752265766828
1506652700848,50.95752265766828
1506652700856,48.95752265766828
1506652700865,45.95752265766828
1506652700873,45.95752265766828
1506652700881,35.95752265766828
1506652700889,34.95752265766828
1506652700897,23.957522657668278
1506652700906,15.957522657668278
1506652700914,10.957522657668278
1506652700921,-2.042477342331722
1506652700929,-3.4616953592507684
1506652700937,-9.58728313454884
1506652700942,-15.58728313454884
1506652700950,-18.58728313454884
1506652700958,-27.58728313454884
1506652700966,-26.58728313454884
1506652700975,-31.58728313454884
1506652700983,-32.58728313454884
1506652700991,-29.58728313454884
1506652700999,-34.58728313454884
1506652701008,-29.58728313454884
1506652701016,-31.58728313454884
1506652701024,-29.58728313454884
1506652701033,-25.58728313454884
1506652701040,-26.58728313454884
1506652701049,-19.58728313454884
1506652701057,-20.58728313454884
1506652701065,-17.58728313454884
1506652701073,-11.58728313454884
1506652701081,-13.58728313454884
1506652701089,-7.587283134548841
1506652701097,-7.587283134548841
1506652701102,-5.587283134548841
1506652701110,-0.5872831345488407
1506652701119,-3.5872831345488407
1506652701126,2.4127168654511593
1506652701134,0.41271686545115926
1506652701142,1.4127168654511593
1506652701150,5.412716865451159
1506652701159,0.41271686545115926
1506652701167,6.412716865451159
1506652701175,3.4127168654511593
1506652701185,2.4127168654511593
1506652701193,5.412716865451159
1506652701202,0.41271686545115926
1506652701209,4.412716865451159
1506652701217,0.41271686545115926
1506652701225,-0.3279430501726779
1506652701233,2.439504459115483
1506652701242,-3.560495540884517
1506652701249,1.4395044591154829
1506652701257,-1.5604955408845171
1506652701262,-3.560495540884517
1506652701270,-0.5604955408845171
1506652701278,-6.560495540884517
1506652701286,-2.560495540884517
1506652701294,-5.560495540884517
1506652701303,-4.560495540884517
1506652701311,2.439504459115483
1506652701319,6.439504459115483
1506652701327,22.672056949827322
1506652701335,36.41271686545116
1506652701343,58.786063840327984
1506652701351,88.78606384032798
1506652701359,113.78606384032798
1506652701367,147.78606384032798
1506652701376,174.78606384032798
1506652701384,199.78606384032798
1506652701393,220.58899078877596
1506652701400,228.57419244351848
1506652701409,237.0109379091097
1506652701417,234.2319474105122
1506652701421,225.8015401691954
1506652701430,211.5318763489609
1506652701438,186.99098656602087
1506652701446,168.99098656602087
1506652701454,139.99098656602087
1506652701463,110.99098656602087
1506652701471,85.99098656602087
1506652701479,53.990986566020865
1506652701487,30.990986566020865
1506652701495,4.990986566020865
1506652701504,-18.009013433979135
1506652701511,-32.009013433979135
1506652701520,-51.009013433979135
1506652701527,-58.009013433979135
1506652701535,-68.00901343397913
1506652701545,-72.00901343397913
1506652701553,-70.00901343397913
1506652701560,-73.00901343397913
1506652701569,-65.00901343397913
1506652701577,-63.009013433979135
1506652701581,-57.009013433979135
1506652701590,-44.009013433979135
1506652701598,-40.009013433979135
1506652701606,-25.009013433979135
1506652701614,-10.198459830804609
1506652701622,-0.8984041091993049
1506652701630,13.231947410512191
1506652701639,22.396451188424123
1506652701647,34.574192443518484
1506652701655,44.68293033100326
1506652701663,50.61392464509464
1506652701671,57.61392464509464
1506652701679,52.61392464509464
1506652701687,56.61392464509464
1506652701696,51.61392464509464
1506652701704,46.61392464509464
1506652701712,44.61392464509464
1506652701721,33.61392464509464
1506652701728,30.61392464509464
1506652701736,21.61392464509464
1506652701740,12.613924645094642
1506652701748,8.613924645094642
1506652701757,-4.386075354905358
1506652701766,-5.875067808575807
1506652701774,-13.875067808575807
1506652701782,-21.875067808575807
1506652701790,-21.875067808575807
1506652701798,-29.875067808575807
1506652701807,-28.875067808575807
1506652701815,-32.87506780857581
1506652701822,-34.87506780857581
1506652701830,-30.875067808575807
1506652701839,-35.87506780857581
1506652701847,-29.875067808575807
1506652701855,-29.875067808575807
1506652701863,-29.875067808575807
1506652701871,-22.875067808575807
1506652701880,-24.875067808575807
1506652701888,-17.875067808575807
1506652701896,-14.875067808575807
1506652701900,-13.875067808575807
1506652701909,-6.875067808575807
1506652701917,-7.875067808575807
1506652701925,-0.8750678085758068
1506652701933,0.1249321914241932
1506652701941,1.1249321914241932
1506652701950,7.124932191424193
1506652701958,3.124932191424193
1506652701966,7.124932191424193
1506652701974,7.124932191424193
1506652701982,5.124932191424193
1506652701990,9.124932191424193
1506652701999,5.124932191424193
1506652702008,7.124932191424193
1506652702016,5.124932191424193
1506652702023,2.124932191424193
1506652702031,6.124932191424193
1506652702040,0.1249321914241932
1506652702048,3.124932191424193
1506652702056,1.1249321914241932
1506652702060,-2.875067808575807
1506652702068,1.1249321914241932
1506652702076,-4.875067808575807
1506652702085,-1.8750678085758068
1506652702093,-2.875067808575807
1506652702101,-6.875067808575807
1506652702110,-2.875067808575807
1506652702118,-7.875067808575807
1506652702126,-5.875067808575807
1506652702133,-6.875067808575807
1506652702142,-9.875067808575807
1506652702150,-9.243417420452772
1506652702158,-13.243417420452772
1506652702166,-5.243417420452772
1506652702175,0.7565825795472279
1506652702183,9.756582579547228
1506652702191,30.756582579547228
1506652702199,46.75658257954723
1506652702208,73.75658257954723
1506652702216,100.75658257954723
1506652702223,128.75658257954723
1506652702227,162.75658257954723
1506652702236,184.75658257954723
1506652702244,210.75658257954723
1506652702252,225.89573938630411
1506652702260,230.30273973048088
1506652702268,233.82818875755078
1506652702276,222.58491650752654
1506652702285,212.29030747736067
1506652702293,191.8080344732054
1506652702301,168.27278843425069
1506652702310,148.27278843425069
1506652702318,117.27278843425069
1506652702327,92.27278843425069
1506652702335,63.272788434250685
1506652702343,34.272788434250685
1506652702351,14.272788434250685
1506652702359,-12.727211565749315
1506652702367,-30.727211565749315
1506652702375,-46.727211565749315
1506652702383,-60.727211565749315
1506652702388,-65.72721156574931
1506652702396,-75.72721156574931
1506652702404,-74.72721156574931
1506652702413,-75.72721156574931
1506652702421,-76.72721156574931
1506652702429,-66.72721156574931
1506652702437,-64.72721156574931
1506652702445,-52.727211565749315
1506652702453,-42.727211565749315
1506652702461,-34.727211565749315
1506652702470,-18.727211565749315
1506652702478,-6.70969252263933
1506652702486,9.1002462576256
1506652702494,19.584916507526543
1506652702502,32.01739318569622
1506652702511,47.30273973048088
1506652702519,52.75658257954723
1506652702527,59.75658257954723
1506652702535,61.75658257954723
1506652702543,58.75658257954723
1506652702547,61.75658257954723
1506652702555,53.75658257954723
1506652702564,50.75658257954723
1506652702572,43.75658257954723
1506652702580,33.75658257954723
1506652702588,29.756582579547228
1506652702597,17.756582579547228
1506652702605,11.756582579547228
1506652702613,2.756582579547228
1506652702621,-8.180080697575022
1506652702629,-7.549385891409713
1506652702637,-19.549385891409713
1506652702646,-22.549385891409713
1506652702654,-26.549385891409713
1506652702662,-32.54938589140971
1506652702670,-29.549385891409713
1506652702678,-35.54938589140971
1506652702687,-33.54938589140971
1506652702695,-32.54938589140971
1506652702703,-34.54938589140971
1506652702707,-29.549385891409713
1506652702716,-31.549385891409713
1506652702724,-28.549385891409713
1506652702732,-26.549385891409713
1506652702740,-26.549385891409713
1506652702748,-19.549385891409713
1506652702756,-20.549385891409713
1506652702764,-16.549385891409713
1506652702773,-12.549385891409713
1506652702781,-13.549385891409713
1506652702789,-6.549385891409713
1506652702797,-8.549385891409713
1506652702805,-3.549385891409713
1506652702814,-1.5493858914097132
1506652702822,-3.549385891409713
1506652702830,4.450614108590287
1506652702838,-0.5493858914097132
1506652702846,3.450614108590287
1506652702855,5.450614108590287
1506652702863,2.450614108590287
1506652702866,8.450614108590287
1506652702876,4.450614108590287
1506652702884,5.450614108590287
1506652702892,5.450614108590287
1506652702900,1.4506141085902868
1506652702908,5.450614108590287
1506652702916,-0.5493858914097132
1506652702924,0.6461181154911628
1506652702932,0.6461181154911628
1506652702941,-3.353881884508837
1506652702949,0.6461181154911628
1506652702958,-5.353881884508837
1506652702966,-4.353881884508837
1506652702974,-3.353881884508837
1506652702982,-8.353881884508837
1506652702990,-4.353881884508837
1506652702998,-9.353881884508837
1506652703007,-7.353881884508837
1506652703015,-4.353881884508837
1506652703023,-1.3538818845088372
1506652703026,12.646118115491163
1506652703035,20.450614108590287
1506652703043,40.38008424966955
1506652703051,64.29284059279462
1506652703059,86.29284059279462
1506652703067,119.29284059279462
1506652703075,143.29284059279462
1506652703084,171.29284059279462
1506652703092,194.29284059279462
1506652703100,209.29284059279462
1506652703109,222.4621410150162
1506652703117,222.29375718303896
1506652703125,220.5668654250626
1506652703133,208.65164753426808
1506652703142,184.52026840452044
1506652703150,164.98959711630505
1506652703158,136.98959711630505
1506652703166,111.98959711630505
1506652703174,85.98959711630505
1506652703182,53.98959711630505
1506652703186,30.98959711630505
1506652703195,0.989597116305049
1506652703203,-20.01040288369495
1506652703212,-39.01040288369495
1506652703220,-59.01040288369495
1506652703228,-66.01040288369495
1506652703236,-80.01040288369495
1506652703244,-84.01040288369495
1506652703252,-86.01040288369495
1506652703261,-90.01040288369495
1506652703269,-82.01040288369495
1506652703277,-81.01040288369495
1506652703285,-72.01040288369495
1506652703293,-62.01040288369495
1506652703301,-55.01040288369495
1506652703309,-38.01040288369495
1506652703318,-26.479731595479564
1506652703326,-9.416667387814186
1506652703334,9.566865425062588
1506652703342,17.55696487799412
1506652703348,33.29375718303896
1506652703355,42.91984793993004
1506652703363,50.91984793993004
1506652703372,57.91984793993004
1506652703380,55.91984793993004
1506652703388,61.91984793993004
1506652703396,56.91984793993004
1506652703404,53.91984793993004
1506652703412,49.91984793993004
1506652703420,38.91984793993004
1506652703428,36.91984793993004
1506652703436,24.919847939930037
1506652703445,16.919847939930037
1506652703453,9.919847939930037
1506652703461,-4.080152060069963
1506652703469,-7.080152060069963
1506652703477,-18.080152060069963
1506652703486,-25.080152060069963
1506652703494,-27.080152060069963
1506652703502,-35.08015206006996
1506652703506,-34.08015206006996
1506652703515,-40.08015206006996
1506652703523,-39.08015206006996
1506652703531,-37.08015206006996
1506652703539,-40.08015206006996
1506652703547,-34.08015206006996
1506652703555,-35.08015206006996
1506652703563,-32.08015206006996
1506652703571,-27.080152060069963
1506652703580,-27.080152060069963
1506652703588,-19.080152060069963
1506652703596,-19.080152060069963
1506652703604,-15.496664844997667
1506652703612,-11.994216439699017
1506652703621,-13.094679948276337
1506652703629,-5.500912698936929
1506652703637,-7.500912698936929
1506652703645,-3.5009126989369292
1506652703653,0.49908730106307075
1506652703661,-2.5009126989369292
1506652703665,4.499087301063071
1506652703673,1.4990873010630708
1506652703681,2.4990873010630708
1506652703690,5.499087301063071
1506652703699,1.4990873010630708
1506652703707,6.499087301063071
1506652703715,3.4990873010630708
1506652703723,3.4990873010630708
1506652703731,5.499087301063071
1506652703739,-0.5009126989369292
1506652703748,3.4990873010630708
1506652703756,-1.5009126989369292
1506652703764,-0.09467994827633675
1506652703772,0.9053200517236633
1506652703780,-5.094679948276337
1506652703788,-2.0946799482763367
1506652703796,-6.094679948276337
1506652703805,-7.094679948276337
1506652703813,-6.094679948276337
1506652703821,-10.094679948276337
1506652703825,-7.094679948276337
1506652703833,-11.094679948276337
1506652703842,-11.094679948276337
1506652703850,-6.094679948276337
1506652703858,-5.094679948276337
1506652703867,9.905320051723663
1506652703875,19.49908730106307
1506652703883,37.49908730106307
1506652703891,65.49908730106307
1506652703899,87.49908730106307
1506652703907,119.49908730106307
1506652703917,145.49908730106307
1506652703924,173.49908730106307
1506652703932,198.49908730106307
1506652703940,212.49908730106307
1506652703948,227.86493529467583
1506652703957,228.12350136959435
1506652703965,219.93810619299063
1506652703973,212.44133592207606
1506652703981,192.08900226258152
1506652703985,171.0917639536251
1506652703993,145.0917639536251
1506652704001,117.0917639536251
1506652704010,91.0917639536251
1506652704018,58.091763953625104
1506652704026,35.091763953625104
1506652704034,7.0917639536251045
1506652704043,-15.908236046374896
1506652704051,-32.908236046374896
1506652704059,-53.908236046374896
1506652704067,-60.908236046374896
1506652704076,-70.9082360463749
1506652704084,-76.9082360463749
1506652704092,-74.9082360463749
1506652704100,-78.9082360463749
1506652704108,-72.9082360463749
1506652704116,-69.9082360463749
1506652704125,-63.908236046374896
1506652704133,-53.908236046374896
1506652704141,-49.908236046374896
1506652704149,-35.908236046374896
1506652704153,-24.278070838068118
1506652704161,-12.910997737418484
1506652704169,3.441335922076064
1506652704177,10.170823857430321
1506652704186,26.12350136959435
1506652704194,34.66944923862269
1506652704202,44.25163295917167
1506652704210,52.25163295917167
1506652704219,52.25163295917167
1506652704227,58.25163295917167
1506652704235,55.25163295917167
1506652704243,53.25163295917167
1506652704251,52.25163295917167
1506652704259,42.25163295917167
1506652704268,41.25163295917167
1506652704276,32.25163295917167
1506652704284,23.251632959171673
1506652704292,19.251632959171673
1506652704300,6.251632959171673
1506652704308,2.2516329591716726
1506652704313,-7.748367040828327
1506652704321,-15.748367040828327
1506652704329,-17.748367040828327
1506652704337,-27.748367040828327
1506652704345,-27.748367040828327
1506652704353,-33.74836704082833
1506652704362,-37.74836704082833
1506652704370,-34.74836704082833
1506652704378,-39.74836704082833
1506652704386,-33.74836704082833
1506652704394,-33.74836704082833
1506652704403,-33.74836704082833
1506652704411,-27.748367040828327
1506652704420,-28.748367040828327
1506652704427,-21.748367040828327
1506652704435,-21.602921116238065
1506652704444,-19.681096273425737
1506652704452,-11.600305578356597
1506652704460,-15.133136140449324
1506652704468,-9.152644409382106
1506652704472,-8.152644409382106
1506652704480,-7.1526444093821056
1506652704488,-2.1526444093821056
1506652704497,-5.1526444093821056
1506652704505,0.8473555906178944
1506652704513,0.8473555906178944
1506652704522,0.8473555906178944
1506652704529,5.8473555906178944
1506652704537,1.8473555906178944
1506652704546,6.8473555906178944
1506652704554,4.8473555906178944
1506652704562,3.8473555906178944
1506652704570,6.8473555906178944
1506652704578,1.8473555906178944
1506652704587,3.8473555906178944
1506652704595,1.8473555906178944
1506652704603,-1.1526444093821056
1506652704612,1.8668638595506764
1506652704620,-3.1331361404493236
1506652704627,-1.1331361404493236
1506652704632,-4.133136140449324
1506652704640,-6.133136140449324
1506652704648,-2.1331361404493236
1506652704656,-7.133136140449324
1506652704665,-5.133136140449324
1506652704672,-7.133136140449324
1506652704681,-10.133136140449324
1506652704689,-6.133136140449324
1506652704697,-9.133136140449324
1506652704705,0.8668638595506764
1506652704714,9.866863859550676
1506652704722,21.847355590617894
1506652704730,45.521476401330176
1506652704738,64.52147640133018
1506652704747,94.52147640133018
1506652704755,123.52147640133018
1506652704763,151.52147640133018
1506652704771,181.52147640133018
1506652704779,201.52147640133018
1506652704787,222.52147640133018
1506652704791,232.71794067438782
1506652704800,233.92398242800527
1506652704808,233.60570044331655
1506652704816,215.72111737544918
1506652704825,203.70579225938383
1506652704833,174.31091534232803
1506652704841,147.31091534232803
1506652704849,123.31091534232803
1506652704858,89.31091534232803
1506652704866,62.31091534232803
1506652704874,31.31091534232803
1506652704882,2.3109153423280304
1506652704891,-18.68908465767197
1506652704899,-45.68908465767197
1506652704907,-58.68908465767197
1506652704915,-71.68908465767197
1506652704923,-82.68908465767197
1506652704932,-83.68908465767197
1506652704940,-90.68908465767197
1506652704948,-86.68908465767197
1506652704952,-84.68908465767197
1506652704960,-80.68908465767197
1506652704968,-70.68908465767197
1506652704977,-66.68908465767197
1506652704985,-53.68908465767197
1506652704993,-43.68908465767197
1506652705001,-33.333509771308684
1506652705009,-10.79675513503355
1506652705018,-4.294207740616173
1506652705026,15.60570044331655
1506652705034,24.782040498560832
1506652705042,33.71794067438782
1506652705050,49.2175293948286
1506652705058,51.25739427640656
1506652705066,59.25739427640656
1506652705074,59.25739427640656
1506652705083,57.25739427640656
1506652705091,59.25739427640656
1506652705099,51.25739427640656
1506652705107,49.25739427640656
1506652705112,42.25739427640656
1506652705120,31.257394276406558
1506652705128,27.257394276406558
1506652705136,15.257394276406558
1506652705144,9.257394276406558
1506652705153,1.2573942764065578
1506652705161,-7.742605723593442
1506652705169,-8.742605723593442
1506652705177,-19.742605723593442
1506652705186,-22.742605723593442
1506652705193,-26.742605723593442
1506652705201,-32.74260572359344
1506652705210,-31.742605723593442
1506652705218,-37.74260572359344
1506652705226,-35.74260572359344
1506652705234,-34.74260572359344
1506652705243,-36.74260572359344
1506652705251,-31.742605723593442
1506652705259,-33.74260572359344
1506652705267,-28.742605723593442
1506652705271,-24.742605723593442
1506652705279,-23.782470605171397
1506652705288,-16.966432489018416
1506652705296,-20.137312433716318
1506652705304,-13.602053571906993
1506652705313,-11.382821497946281
1506652705321,-11.382821497946281
1506652705328,-4.382821497946281
1506652705336,-5.382821497946281
1506652705345,-1.3828214979462814
1506652705353,-0.3828214979462814
1506652705361,-1.3828214979462814
1506652705369,4.617178502053719
1506652705377,1.6171785020537186
1506652705386,3.6171785020537186
1506652705394,3.6171785020537186
1506652705402,1.6171785020537186
1506652705411,5.617178502053719
1506652705419,1.6171785020537186
1506652705426,4.617178502053719
1506652705431,4.617178502053719
1506652705439,1.6171785020537186
1506652705447,4.617178502053719
1506652705455,0.3979464280930074
1506652705464,1.3979464280930074
1506652705471,2.3979464280930074
1506652705480,-3.6020535719069926
1506652705488,0.3979464280930074
1506652705496,-5.602053571906993
1506652705505,-4.602053571906993
1506652705513,-5.602053571906993
1506652705521,-10.602053571906993
1506652705529,-6.602053571906993
1506652705537,-10.602053571906993
1506652705545,-6.602053571906993
1506652705553,-2.6020535719069926
1506652705562,3.3979464280930074
1506652705570,22.397946428093007
1506652705578,35.61717850205372
1506652705586,61.075187652418606
1506652705591,86.57415119546783
1506652705599,109.57415119546783
1506652705607,142.57415119546783
1506652705615,162.57415119546783
1506652705624,186.57415119546783
1506652705631,205.57415119546783
1506652705640,213.57415119546783
1506652705648,222.60966080392012
1506652705656,216.46237932858992
1506652705664,206.86547940251688
1506652705673,193.2068581277486
1506652705681,161.95169466619336
1506652705689,143.62193458151148
1506652705697,112.74227750008026
1506652705705,86.74227750008026
1506652705714,58.74227750008026
1506652705722,27.742277500080263
1506652705729,6.742277500080263
1506652705738,-20.257722499919737
1506652705747,-40.25772249991974
1506652705751,-56.25772249991974
1506652705759,-72.25772249991974
1506652705767,-77.25772249991974
1506652705775,-88.25772249991974
1506652705783,-89.25772249991974
1506652705792,-89.25772249991974
1506652705800,-92.25772249991974
1506652705808,-82.25772249991974
1506652705816,-80.25772249991974
1506652705825,-70.25772249991974
1506652705833,-59.25772249991974
1506652705841,-52.25772249991974
1506652705849,-36.25772249991974
1506652705857,-26.378065418488518
1506652705866,-7.310500749567154
1506652705874,8.865479402516883
1506652705882,19.617578966930978
1506652705890,35.46237932858992
1506652705898,45.60503178116096
1506652705906,55.60503178116096
1506652705911,61.60503178116096
1506652705919,59.60503178116096
1506652705926,65.60503178116096
1506652705934,61.60503178116096
1506652705942,59.60503178116096
1506652705952,56.60503178116096
1506652705960,46.60503178116096
1506652705968,44.60503178116096
1506652705976,33.60503178116096
1506652705984,26.60503178116096
1506652705992,18.60503178116096
1506652706000,6.60503178116096
1506652706009,3.6050317811609602
1506652706017,-9.39496821883904
1506652706025,-14.39496821883904
1506652706033,-18.39496821883904
1506652706041,-28.39496821883904
1506652706049,-27.39496821883904
1506652706057,-34.71103162116202
1506652706065,-34.94127997562191
1506652706073,-34.94127997562191
1506652706078,-37.94127997562191
1506652706086,-33.94127997562191
1506652706095,-36.69588968652215
1506652706103,-33.91067555218939
1506652706111,-29.577469468851973
1506652706120,-32.00347196759077
1506652706127,-25.073957138555784
1506652706135,-26.092468798836876
1506652706144,-22.106268660917237
1506652706152,-17.073885030534484
1506652706160,-18.28012725555226
1506652706168,-10.864916226113621
1506652706176,-11.864916226113621
1506652706184,-7.864916226113621
1506652706192,-3.864916226113621
1506652706200,-5.864916226113621
1506652706209,2.135083773886379
1506652706217,-0.8649162261136212
1506652706226,1.1350837738863788
1506652706233,4.135083773886379
1506652706238,0.13508377388637882
1506652706247,6.135083773886379
1506652706254,3.135083773886379
1506652706263,4.135083773886379
1506652706271,5.1923117906773655
1506652706279,1.7198727444477413
1506652706287,5.926114969465516
1506652706295,2.8937313390827626
1506652706303,2.907531201163124
1506652706312,3.926042861444216
1506652706320,-2.073957138555784
1506652706328,1.9260428614442162
1506652706336,-3.073957138555784
1506652706345,-4.073957138555784
1506652706353,-3.073957138555784
1506652706361,-8.073957138555784
1506652706369,-4.073957138555784
1506652706377,-5.073957138555784
1506652706385,3.926042861444216
1506652706393,15.926042861444216
1506652706398,26.907531201163124
1506652706407,51.89373133908276
1506652706414,70.92611496946552
1506652706422,97.71987274444774
1506652706430,126.19231179067737
1506652706439,146.13508377388638
1506652706447,173.9087999873331
1506652706455,189.59831274159353
1506652706463,203.45959393451665
1506652706471,213.36256713709776
1506652706480,209.22214539485606
1506652706488,207.86373619901053
1506652706496,187.9814508792898
1506652706504,166.14074302816925
1506652706513,147.03010183596865
1506652706521,112.41656475323185
1506652706528,91.41656475323185
1506652706536,60.41656475323185
1506652706545,31.416564753231853
1506652706553,6.416564753231853
1506652706557,-24.583435246768147
1506652706565,-40.58343524676815
1506652706573,-62.58343524676815
1506652706581,-77.58343524676815
1506652706590,-85.58343524676815
1506652706598,-98.58343524676815
1506652706607,-97.58343524676815
1506652706616,-102.58343524676815
1506652706625,-102.58343524676815
1506652706631,-95.58343524676815
1506652706639,-93.58343524676815
1506652706648,-81.58343524676815
1506652706655,-74.58343524676815
1506652706664,-63.58343524676815
1506652706672,-49.58343524676815
1506652706680,-38.44955393670148
1506652706688,-15.859256971830746
1506652706696,-1.7922559001079321
1506652706704,17.743761933542487
1506652706713,32.86373619901053
1506652706717,42.192311790677365
1506652706726,60.95648726793172
1506652706734,68.61852437369743
1506652706742,72.61852437369743
1506652706750,78.61852437369743
1506652706758,74.61852437369743
1506652706767,76.61852437369743
1506652706775,70.61852437369743
1506652706784,63.618524373697426
1506652706791,59.618524373697426
1506652706799,46.618524373697426
1506652706807,42.618524373697426
1506652706816,29.618524373697426
1506652706824,19.618524373697426
1506652706832,14.618524373697426
1506652706840,0.6185243736974257
1506652706848,-3.3814756263025743
1506652706857,-13.381475626302574
1506652706864,-19.381475626302574
1506652706872,-21.381475626302574
1506652706877,-30.846612503317203
1506652706885,-31.04351273206828
1506652706893,-36.07541466530773
1506652706901,-38.11102790921586
1506652706910,-35.01985550394022
1506652706918,-40.8935694903721
1506652706926,-35.851332411486
1506652706934,-37.041087584683964
1506652706942,-36.63866592819335
1506652706951,-31.136263800989468
1506652706959,-32.25623806645751
1506652706968,-27.844108431817858
1506652706976,-28.87373153334579
1506652706984,-29.792255900107932
1506652706992,-24.948155099385133
1506652707000,-27.859256971830746
1506652707008,-24.276199998219397
1506652707016,-24.276199998219397
1506652707024,-23.276199998219397
1506652707032,-10.948155099385133
1506652707036,-13.109105949012019
1506652707045,-7.792255900107932
1506652707053,-4.87373153334579
1506652707061,-0.8441084318178582
1506652707069,4.743761933542487
1506652707077,2.3613340718066524
1506652707086,7.9589124153160355
1506652707094,7.148667588514002
1506652707102,6.106430509627899
1506652707110,9.98014449605978
1506652707119,4.8889720907841365
1506652707128,8.924585334692267
1506652707135,7.9564872679317205
1506652707143,10.153387496682797
1506652707151,20.618524373697426
1506652707159,25.618524373697426
1506652707168,42.1533874966828
1506652707176,57.92458533469227
1506652707184,77.88897209078414
1506652707192,103.98014449605978
1506652707196,122.1064305096279
1506652707205,150.148667588514
1506652707213,168.62914772958987
1506652707221,182.95891241531604
1506652707229,197.36133407180665
1506652707237,196.15589156818214
1506652707245,197.1262684666542
1506652707253,187.11843577139643
1506652707262,171.89089405098798
1506652707270,158.05184490061487
1506652707278,126.7238000017806
1506652707286,104.05468042259753
1506652707294,76.05468042259753
1506652707302,47.05468042259753
1506652707311,24.054680422597528
1506652707319,-6.945319577402472
1506652707327,-25.945319577402472
1506652707336,-49.94531957740247
1506652707344,-68.94531957740247
1506652707352,-78.94531957740247
1506652707356,-94.94531957740247
1506652707364,-98.94531957740247
1506652707372,-104.94531957740247
1506652707380,-107.94531957740247
1506652707389,-102.94531957740247
1506652707397,-103.94531957740247
1506652707405,-93.94531957740247
1506652707413,-87.94531957740247
1506652707422,-79.94531957740247
1506652707429,-62.94531957740247
1506652707438,-47.78767945454962
1506652707446,-30.10910594901202
1506652707454,-15.881564228603565
1506652707462,-0.637564033776755
1506652707470,21.629147729589874
1506652707478,31.294044670461062
1506652707487,50.95642005670334
1506652707496,59.8221237743071
1506652707505,67.56997213858148
1506652707512,77.89191995821318
1506652707516,73.89191995821318
1506652707524,76.89191995821318
1506652707532,73.89191995821318
1506652707540,66.89191995821318
1506652707548,64.89191995821318
1506652707556,53.89191995821318
1506652707565,47.89191995821318
1506652707573,37.89191995821318
1506652707581,26.89191995821318
1506652707589,21.89191995821318
1506652707597,8.89191995821318
1506652707606,3.8919199582131796
1506652707614,-3.1080800417868204
1506652707623,-12.10808004178682
1506652707630,-13.10808004178682
1506652707638,-22.10808004178682
1506652707647,-22.7697197717672
1506652707655,-25.430027861418523
1506652707663,-29.610053358380185
1506652707671,-26.786538207774186
1506652707679,-32.1778762256929
1506652707683,-27.479688311388713
1506652707691,-27.88995049797694
1506652707700,-31.23116201755471
1506652707708,-25.705955329538938
1506652707716,-29.370852270410126
1506652707725,-24.720295409872733
1506652707733,-24.637564033776755
1506652707741,-27.56213110600794
1506652707749,-21.881564228603565
1506652707757,-26.787679454549618
1506652707765,-24.928768912672126
1506652707774,-25.74018038392046
1506652707782,-25.928768912672126
1506652707790,-17.787679454549618
1506652707798,-16.56213110600794
1506652707806,-10.637564033776755
1506652707815,-6.720295409872733
1506652707823,-5.705955329538938
1506652707831,0.7688379824452909
1506652707839,-3.9422248374522155
1506652707843,2.1100495020230596
1506652707851,4.520311688611287
1506652707859,0.8221237743071015
1506652707867,6.213461792225814
1506652707876,5.389946641619815
1506652707885,11.2302802282328
1506652707893,17.89191995821318
1506652707901,24.50755936985854
1506652707909,45.50755936985854
1506652707917,59.50755936985854
1506652707925,84.89191995821318
1506652707933,109.2302802282328
1506652707941,130.38994664161982
1506652707949,159.21346179222581
1506652707958,176.5203116886113
1506652707967,195.11004950202306
1506652707975,207.86521598951532
1506652707983,211.05777516254778
1506652707991,215.7688379824453
1506652707999,202.27970459012727
1506652708003,188.7279007007436
1506652708011,170.43786889399206
1506652708020,138.26155328922715
1506652708028,119.07123108732787
1506652708035,88.07123108732787
1506652708045,62.071231087327874
1506652708053,34.071231087327874
1506652708061,4.071231087327874
1506652708069,-17.928768912672126
1506652708077,-43.928768912672126
1506652708086,-59.928768912672126
1506652708094,-75.92876891267213
1506652708102,-89.92876891267213
1506652708110,-92.92876891267213
1506652708118,-102.92876891267213
1506652708126,-100.92876891267213
1506652708134,-98.92876891267213
1506652708142,-98.92876891267213
1506652708150,-88.92876891267213
1506652708159,-84.92876891267213
1506652708163,-73.92876891267213
1506652708171,-61.928768912672126
1506652708180,-52.73844671077285
1506652708188,-30.99914303554175
1506652708196,-18.27209929925641
1506652708205,0.1899755654301316
1506652708212,18.057775162547784
1506652708220,26.240889007138776
1506652708228,42.86521598951532
1506652708236,52.94870820690676
1506652708244,60.94870820690676
1506652708253,66.94870820690676
1506652708261,65.94870820690676
1506652708269,70.94870820690676
1506652708277,65.94870820690676
1506652708286,64.94870820690676
1506652708294,59.94870820690676
1506652708302,49.94870820690676
1506652708310,46.94870820690676
1506652708319,33.94870820690676
1506652708323,27.94870820690676
1506652708330,18.94870820690676
1506652708338,6.948708206906758
1506652708347,1.9487082069067583
1506652708355,-10.051291793093242
1506652708364,-16.05129179309324
1506652708372,-20.05129179309324
1506652708380,-28.05129179309324
1506652708388,-27.028233137558573
1506652708397,-35.953364337234405
1506652708405,-37.13478401048468
1506652708413,-37.759110992861224
1506652708421,-41.38195339626816
1506652708429,-38.489903925547765
1506652708437,-42.81002443456987
1506652708446,-41.27209929925641
1506652708454,-37.46647577680989
1506652708462,-42.99914303554175
1506652708470,-35.50225606928416
1506652708478,-39.73844671077285
1506652708482,-37.10169988428299
1506652708490,-33.10169988428299
1506652708499,-35.10169988428299
1506652708507,-27.101699884282993
1506652708515,-29.101699884282993
1506652708523,-25.101699884282993
1506652708531,-16.502256069284158
1506652708539,-15.99914303554175
1506652708548,-4.466475776809887
1506652708556,-3.8100244345698684
1506652708564,-0.3874671299133752
1506652708572,3.5100960744522354
1506652708580,4.618046603731841
1506652708589,11.240889007138776
1506652708597,13.046635662765595
1506652708605,19.971766862441427
1506652708614,30.94870820690676
1506652708622,37.94870820690676
1506652708629,58.94870820690676
1506652708637,75.94870820690676
1506652708642,100.94870820690676
1506652708650,126.94870820690676
1506652708658,147.07909718765558
1506652708666,175.97176686244143
1506652708674,190.0466356627656
1506652708682,201.61804660373184
1506652708691,209.68622148394525
1506652708699,209.51009607445224
1506652708707,211.61253287008662
1506652708716,194.5335242231901
1506652708724,174.89721671161124
1506652708732,155.49774393071584
1506652708741,122.48457825148978
1506652708749,100.48457825148978
1506652708757,68.48457825148978
1506652708765,39.48457825148978
1506652708774,14.48457825148978
1506652708782,-17.51542174851022
1506652708790,-35.51542174851022
1506652708798,-60.51542174851022
1506652708802,-77.51542174851022
1506652708810,-86.51542174851022
1506652708819,-101.51542174851022
1506652708827,-101.51542174851022
1506652708835,-106.51542174851022
1506652708843,-106.51542174851022
1506652708851,-101.51542174851022
1506652708859,-100.51542174851022
1506652708868,-88.51542174851022
1506652708876,-82.51542174851022
1506652708884,-71.51542174851022
1506652708892,-50.102783288388764
1506652708900,-41.5011357624158
1506652708909,-16.349093944274728
1506652708917,-6.387467129913375
1506652708925,7.686221483945246
1506652708933,26.723615298129914
1506652708941,38.07909718765558
1506652708949,52.07909718765558
1506652708957,57.07909718765558
1506652708962,62.07909718765558
1506652708970,68.07909718765558
1506652708978,64.07909718765558
1506652708987,67.07909718765558
1506652708995,60.07909718765558
1506652709003,56.07909718765558
1506652709011,52.07909718765558
1506652709019,40.07909718765558
1506652709027,36.07909718765558
1506652709035,24.079097187655577
1506652709044,16.079097187655577
1506652709052,9.079097187655577
1506652709060,-2.9209028123444227
1506652709068,-6.920902812344423
1506652709076,-16.920902812344423
1506652709085,-21.920902812344423
1506652709093,-23.920902812344423
1506652709101,-33.067686567668716
1506652709109,-35.76689009269069
1506652709117,-40.276384701870086
1506652709123,-46.956921580268045
1506652709131,-45.313778516054754
1506652709138,-50.34909394427473
1506652709146,-45.82365974447811
1506652709155,-50.5011357624158
1506652709162,-47.56807655086811
1506652709171,-42.102783288388764
1506652709179,-48.39134767151177
1506652709187,-40.39134767151177
1506652709195,-38.39134767151177
1506652709203,-35.39134767151177
1506652709211,-28.391347671511767
1506652709220,-27.391347671511767
1506652709228,-20.391347671511767
1506652709236,-20.391347671511767
1506652709244,-11.568076550868113
1506652709252,-6.5011357624157995
1506652709260,-5.292236541072782
1506652709268,3.176340255521893
1506652709277,1.6509060557252724
1506652709284,5.043078419731955
1506652709289,13.723615298129914
1506652709297,11.233109907309313
1506652709306,23.932313432331284
1506652709315,33.75721882804419
1506652709322,46.75721882804419
1506652709330,67.75721882804419
1506652709338,86.75721882804419
1506652709346,114.75721882804419
1506652709355,138.7572188280442
1506652709363,163.7572188280442
1506652709371,187.93231343233128
1506652709379,198.2331099073093
1506652709387,210.04307841973196
1506652709395,212.6061290377778
1506652709404,208.1763402555219
1506652709412,202.70776345892722
1506652709420,181.4319234491319
1506652709429,164.0867018571222
1506652709436,134.60865232848823
1506652709444,106.60865232848823
1506652709448,81.60865232848823
1506652709457,47.60865232848823
1506652709465,23.608652328488233
1506652709473,-7.391347671511767
1506652709481,-33.39134767151177
1506652709490,-52.39134767151177
1506652709497,-75.39134767151177
1506652709506,-86.39134767151177
1506652709514,-98.39134767151177
1506652709522,-106.39134767151177
1506652709530,-107.39134767151177
1506652709538,-112.39134767151177
1506652709547,-105.39134767151177
1506652709555,-104.39134767151177
1506652709563,-97.39134767151177
1506652709571,-83.39134767151177
1506652709579,-77.39134767151177
1506652709587,-55.91329814287781
1506652709596,-41.692377761049386
1506652709604,-25.292236541072782
1506652709608,-4.232551549476796
1506652709617,7.606129037777805
1506652709625,29.068504997878392
1506652709632,43.75721882804419
1506652709641,52.75721882804419
1506652709649,65.75721882804419
1506652709657,66.75721882804419
1506652709666,73.75721882804419
1506652709673,72.75721882804419
1506652709682,67.75721882804419
1506652709690,68.75721882804419
1506652709698,56.75721882804419
1506652709706,53.75721882804419
1506652709715,43.75721882804419
1506652709724,33.75721882804419
1506652709731,27.757218828044188
1506652709739,13.757218828044188
1506652709748,7.757218828044188
1506652709756,-2.242781171955812
1506652709764,-11.242781171955812
1506652709768,-14.242781171955812
1506652709776,-25.242781171955812
1506652709784,-26.242781171955812
1506652709793,-34.69818081644058
1506652709801,-39.93149500212161
1506652709809,-41.257763296127735
1506652709818,-47.393870962222195
1506652709826,-45.232551549476796
1506652709834,-48.82431032848916
1506652709843,-51.692377761049386
1506652709850,-45.91329814287781
1506652709858,-47.91329814287781
1506652709867,-39.91329814287781
1506652709875,-36.91329814287781
1506652709882,-35.91329814287781
1506652709891,-26.913298142877807
1506652709899,-29.913298142877807
1506652709908,-22.913298142877807
1506652709916,-20.913298142877807
1506652709924,-20.913298142877807
1506652709928,-12.692377761049386
1506652709936,-11.824310328489162
1506652709944,-6.621978531091145
1506652709952,-4.232551549476796
1506652709960,-2.2577632961277345
1506652709969,9.068504997878392
1506652709977,10.301819183559417
1506652709985,25.040284934091005
1506652709993,36.040284934091005
1506652710002,50.040284934091005
1506652710010,76.040284934091
1506652710019,95.040284934091
1506652710027,124.040284934091
1506652710035,149.040284934091
1506652710043,171.040284934091
1506652710051,194.040284934091
1506652710059,205.040284934091
1506652710068,212.30181918355942
1506652710076,214.0638129556164
1506652710084,201.74223670387227
1506652710088,190.0595684391377
1506652710096,168.37802146890886
1506652710105,147.17568967151084
1506652710113,119.78449802680615
1506652710121,88.78449802680615
1506652710129,63.78449802680615
1506652710137,29.784498026806148
1506652710146,3.7844980268061477
1506652710154,-22.215501973193852
1506652710162,-48.21550197319385
1506652710170,-62.21550197319385
1506652710178,-83.21550197319385
1506652710186,-91.21550197319385
1506652710195,-100.21550197319385
1506652710204,-108.21550197319385
1506652710210,-104.21550197319385
1506652710219,-107.21550197319385
1506652710228,-101.21550197319385
1506652710236,-95.21550197319385
1506652710244,-89.21550197319385
1506652710248,-73.21550197319385
1506652710256,-65.21550197319385
1506652710265,-46.621978531091145
1506652710272,-31.940431560862294
1506652710280,-12.35067193479091
1506652710289,12.063812955616413
1506652710297,23.40649784946129
1506652710305,41.18653567788999
1506652710313,53.18653567788999
1506652710321,58.18653567788999
1506652710329,69.18653567788999
1506652710338,68.18653567788999
1506652710346,72.18653567788999
1506652710354,70.18653567788999
1506652710362,64.18653567788999
1506652710370,63.18653567788999
1506652710379,51.18653567788999
1506652710387,46.18653567788999
1506652710396,36.18653567788999
1506652710403,24.186535677889992
1506652710407,19.186535677889992
1506652710416,4.186535677889992
1506652710424,-3.8134643221100077
1506652710432,-11.813464322110008
1506652710440,-22.813464322110008
1506652710448,-23.813464322110008
1506652710456,-33.81346432211001
1506652710465,-38.59350215053871
1506652710473,-42.486726102524926
1506652710481,-48.93618704438359
1506652710489,-46.85093255198575
1506652710497,-52.35067193479091
1506652710505,-53.10505720793458
1506652710514,-49.940431560862294
1506652710522,-52.21550197319385
1506652710530,-47.45196069710107
1506652710538,-50.93248910454355
1506652710546,-44.93248910454355
1506652710555,-40.93248910454355
1506652710563,-38.93248910454355
1506652710567,-30.93248910454355
1506652710575,-31.93248910454355
1506652710584,-24.93248910454355
1506652710591,-19.93248910454355
1506652710600,-21.93248910454355
1506652710608,-11.451960697101072
1506652710616,-9.215501973193852
1506652710625,-3.1050572079345784
1506652710633,3.6493280652090903
1506652710641,2.14906744801425
1506652710649,10.851758535040801
1506652710657,16.513273897475074
1506652710665,28.40649784946129
1506652710673,43.40649784946129
1506652710682,58.40649784946129
1506652710690,88.40649784946129
1506652710698,110.40649784946129
1506652710706,139.4064978494613
1506652710715,167.4064978494613
1506652710722,187.4064978494613
1506652710727,210.51327389747507
1506652710735,216.8517585350408
1506652710743,225.49407013340823
1506652710751,225.14906744801425
1506652710759,208.89494279206542
1506652710768,198.05351042787277
1506652710776,170.54803930289893
1506652710784,146.3279902010088
1506652710792,122.32799020100879
1506652710801,89.32799020100879
1506652710809,65.32799020100879
1506652710817,31.327990201008788
1506652710825,4.327990201008788
1506652710833,-20.672009798991212
1506652710841,-47.67200979899121
1506652710849,-60.67200979899121
1506652710857,-78.67200979899121
1506652710866,-88.67200979899121
1506652710874,-93.67200979899121
1506652710882,-101.67200979899121
1506652710886,-96.67200979899121
1506652710894,-98.67200979899121
1506652710903,-93.67200979899121
1506652710912,-84.67200979899121
1506652710920,-80.67200979899121
1506652710928,-66.67200979899121
1506652710936,-58.67200979899121
1506652710944,-39.19441028041717
1506652710952,-23.946489572127234
1506652710960,-8.641855427430528
1506652710968,10.49407013340823
1506652710977,19.8517585350408
1506652710985,33.78125231056663
1506652710993,48.01054488082684
1506652711001,52.01054488082684
1506652711009,61.01054488082684
1506652711018,59.01054488082684
1506652711026,60.01054488082684
1506652711034,61.01054488082684
1506652711042,53.01054488082684
1506652711047,53.01054488082684
1506652711055,43.01054488082684
1506652711063,37.01054488082684
1506652711071,30.010544880826842
1506652711079,18.010544880826842
1506652711087,15.010544880826842
1506652711095,3.010544880826842
1506652711104,-3.989455119173158
1506652711112,-8.989455119173158
1506652711120,-18.989455119173158
1506652711128,-19.989455119173158
1506652711137,-26.989455119173158
1506652711145,-28.989455119173158
1506652711153,-31.21874768943337
1506652711161,-38.14951505264929
1506652711169,-36.50592986659177
1506652711177,-42.116778486939324
1506652711186,-40.64185542743053
1506652711194,-42.100384243159795
1506652711202,-44.946489572127234
1506652711210,-37.19441028041717
1506652711214,-44.30590654997576
1506652711222,-39.67200979899121
1506652711231,-33.67200979899121
1506652711239,-35.67200979899121
1506652711247,-27.672009798991212
1506652711255,-27.672009798991212
1506652711263,-22.672009798991212
1506652711272,-18.672009798991212
1506652711280,-20.672009798991212
1506652711288,-13.30590654997576
1506652711296,-9.194410280417173
1506652711304,-7.1003842431597946
1506652711312,2.358144572569472
1506652711321,-2.1167784869393245
1506652711329,6.973318577731618
1506652711337,8.850484947350708
1506652711345,15.781252310566629
1506652711353,28.78125231056663
1506652711361,39.78125231056663
1506652711369,65.78125231056663
1506652711374,86.78125231056663
1506652711382,113.78125231056663
1506652711390,144.78125231056663
1506652711398,166.78125231056663
1506652711407,194.75721836258072
1506652711415,209.8504849473507
1506652711423,219.97331857773162
1506652711431,225.88322151306068
1506652711439,216.13084904922488
1506652711448,209.8996157568402
1506652711455,188.15546665889946
1506652711464,167.15546665889946
1506652711472,145.15546665889946
1506652711480,114.15546665889946
1506652711488,89.15546665889946
1506652711497,57.155466658899456
1506652711505,27.155466658899456
1506652711514,5.155466658899456
1506652711522,-23.844533341100544
1506652711529,-40.844533341100544
1506652711533,-59.844533341100544
1506652711542,-71.84453334110054
1506652711550,-76.84453334110054
1506652711558,-85.84453334110054
1506652711566,-83.84453334110054
1506652711574,-86.84453334110054
1506652711582,-83.84453334110054
1506652711591,-74.84453334110054
1506652711600,-72.84453334110054
1506652711608,-60.844533341100544
1506652711616,-52.844533341100544
1506652711625,-43.844533341100544
1506652711632,-25.94776922082019
1506652711640,-14.869150950775122
1506652711649,3.1795435083718644
1506652711656,14.973318577731618
1506652711664,26.246214381811058
1506652711673,37.757218362580716
1506652711681,45.01738374787266
1506652711689,55.01738374787266
1506652711694,56.01738374787266
1506652711702,56.01738374787266
1506652711710,59.01738374787266
1506652711718,52.01738374787266
1506652711726,52.01738374787266
1506652711735,45.01738374787266
1506652711743,37.01738374787266
1506652711751,33.01738374787266
1506652711759,21.017383747872657
1506652711767,17.017383747872657
1506652711776,7.017383747872657
1506652711784,-0.9826162521273432
1506652711792,-4.982616252127343
1506652711800,-15.982616252127343
1506652711808,-16.982616252127343
1506652711817,-21.982616252127343
1506652711825,-25.982616252127343
1506652711833,-24.982616252127343
1506652711841,-32.1445445397477
1506652711848,-29.38705114141368
1506652711853,-32.86334561471256
1506652711861,-34.242781637419284
1506652711869,-29.753785618188942
1506652711878,-32.757686109472274
1506652711886,-28.280008038521203
1506652711894,-29.657778787340476
1506652711902,-27.820456491628136
1506652711910,-22.869150950775122
1506652711919,-26.12474902329552
1506652711927,-21.94776922082019
1506652711935,-23.844533341100544
1506652711943,-22.844533341100544
1506652711951,-17.844533341100544
1506652711960,-19.844533341100544
1506652711968,-12.844533341100544
1506652711976,-9.947769220820192
1506652711984,-8.124749023295522
1506652711992,1.1795435083718644
1506652712000,-3.657778787340476
1506652712009,2.246377225617209
1506652712013,1.7199919614787973
1506652712022,3.2423138905277256
1506652712030,6.246214381811058
1506652712039,2.136654385287443
1506652712046,8.612948858586321
1506652712054,9.855455460252301
1506652712063,15.017383747872657
1506652712071,28.017383747872657
1506652712079,37.01738374787266
1506652712087,61.01738374787266
1506652712095,80.8554554602523
1506652712103,104.61294885858632
1506652712111,135.13665438528744
1506652712120,156.24231389052773
1506652712128,183.30205190025487
1506652712136,200.7199919614788
1506652712144,210.2463772256172
1506652712153,219.34222121265952
1506652712160,210.43542041995204
1506652712169,206.87525097670448
1506652712173,185.09430319616365
1506652712181,162.18988080893888
1506652712190,143.18988080893888
1506652712199,111.18988080893888
1506652712207,86.18988080893888
1506652712214,56.18988080893888
1506652712223,27.18988080893888
1506652712231,5.189880808938881
1506652712238,-23.81011919106112
1506652712247,-40.81011919106112
1506652712255,-57.81011919106112
1506652712263,-71.81011919106112
1506652712271,-75.81011919106112
1506652712279,-84.81011919106112
1506652712288,-84.81011919106112
1506652712296,-85.81011919106112
1506652712304,-84.81011919106112
1506652712312,-76.81011919106112
1506652712320,-74.81011919106112
1506652712328,-63.81011919106112
1506652712333,-54.81011919106112
1506652712340,-46.81011919106112
1506652712348,-26.245685038843476
1506652712358,-15.564579580047962
1506652712366,0.19877480136398162
1506652712373,15.24637722561721
1506652712382,24.598173625729487
1506652712391,39.30205190025487
1506652712398,46.13979035818767
1506652712407,55.13979035818767
1506652712414,57.13979035818767
1506652712423,56.13979035818767
1506652712431,61.13979035818767
1506652712439,54.13979035818767
1506652712447,52.13979035818767
1506652712455,46.13979035818767
1506652712464,37.13979035818767
1506652712472,34.13979035818767
1506652712480,21.139790358187668
1506652712488,15.139790358187668
1506652712492,7.139790358187668
1506652712500,-2.8602096418123324
1506652712508,-5.860209641812332
1506652712516,-17.860209641812332
1506652712527,-19.860209641812332
1506652712533,-24.860209641812332
1506652712541,-29.860209641812332
1506652712549,-27.860209641812332
1506652712557,-33.86020964181233
1506652712565,-31.860209641812332
1506652712574,-30.860209641812332
1506652712582,-33.04786613035452
1506652712591,-26.165336944010846
1506652712599,-30.530895737278342
1506652712607,-24.810537303916362
1506652712615,-23.859912015308794
1506652712623,-23.279565540399062
1506652712632,-16.41814897282478
1506652712640,-17.697948099745133
1506652712648,-11.04554102588827
1506652712652,-8.401826374270513
1506652712660,-10.652537939877561
1506652712668,-3.002680355367204
1506652712677,-5.002680355367204
1506652712684,-0.0026803553672039016
1506652712693,1.997319644632796
1506652712701,0.9973196446327961
1506652712709,5.997319644632796
1506652712718,1.997319644632796
1506652712726,4.997319644632796
1506652712734,4.997319644632796
1506652712742,1.997319644632796
1506652712751,6.997319644632796
1506652712758,1.3474620601224387
1506652712767,3.598173625729487
1506652712775,2.9544589741117306
1506652712783,-1.4181489728247811
1506652712791,2.7204344596009378
1506652712799,-1.8599120153087938
1506652712807,-0.14011125391999713
1506652712812,-1.1401112539199971
1506652712820,-5.140111253919997
1506652712828,-1.1401112539199971
1506652712836,-7.140111253919997
1506652712845,-5.140111253919997
1506652712852,-4.140111253919997
1506652712861,-4.140111253919997
1506652712869,8.140087984691206
1506652712877,17.041139701070733
1506652712885,38.72043445960094
1506652712893,62.58185102717522
1506652712901,86.95445897411173
1506652712909,121.34746206012244
1506652712918,146.9973196446328
1506652712926,175.50526900888957
1506652712935,199.33363149169043
1506652712943,214.33363149169043
1506652712951,230.33363149169043
1506652712959,226.9449091733661
1506652712967,220.23285721366977
1506652712971,209.4155825653565
1506652712979,183.21640377545037
1506652712987,163.96060912168326
1506652712995,134.96060912168326
1506652713004,107.96060912168326
1506652713012,80.96060912168326
1506652713021,46.96060912168326
1506652713029,23.960609121683262
1506652713037,-7.039390878316738
1506652713045,-28.039390878316738
1506652713053,-47.03939087831674
1506652713061,-66.03939087831674
1506652713069,-73.03939087831674
1506652713078,-85.03939087831674
1506652713086,-89.03939087831674
1506652713094,-89.03939087831674
1506652713102,-91.03939087831674
1506652713110,-83.03939087831674
1506652713119,-80.03939087831674
1506652713127,-71.03939087831674
1506652713135,-60.03939087831674
1506652713140,-53.03939087831674
1506652713148,-35.03939087831674
1506652713156,-24.783596224549626
1506652713165,-7.82280462478127
1506652713172,10.232857213669774
1506652713180,19.0733259165508
1506652713188,40.33677889536625
1506652713196,46.33677889536625
1506652713205,54.33677889536625
1506652713213,59.33677889536625
1506652713222,57.33677889536625
1506652713230,63.33677889536625
1506652713237,57.33677889536625
1506652713246,55.33677889536625
1506652713255,51.33677889536625
1506652713263,39.33677889536625
1506652713271,37.33677889536625
1506652713278,24.33677889536625
1506652713287,15.336778895366251
1506652713294,9.336778895366251
1506652713299,-2.663221104633749
1506652713307,-5.663221104633749
1506652713315,-16.66322110463375
1506652713324,-21.66322110463375
1506652713332,-25.66322110463375
1506652713340,-34.66322110463375
1506652713348,-31.66322110463375
1506652713356,-36.66322110463375
1506652713364,-37.66322110463375
1506652713372,-35.66322110463375
1506652713380,-38.66322110463375
1506652713388,-31.66322110463375
1506652713397,-32.66322110463375
1506652713405,-28.66322110463375
1506652713413,-23.66322110463375
1506652713422,-23.66322110463375
1506652713430,-15.0326569061275
1506652713438,-17.634851667925375
1506652713448,-13.668632879579036
1506652713455,-9.128817052619581
1506652713459,-11.26957728315
1506652713467,-4.558456945898229
1506652713476,-5.558456945898229
1506652713484,-2.5584569458982287
1506652713492,1.4415430541017713
1506652713500,-1.5584569458982287
1506652713508,5.441543054101771
1506652713516,3.4415430541017713
1506652713525,3.4415430541017713
1506652713532,6.441543054101771
1506652713541,1.4415430541017713
1506652713549,6.441543054101771
1506652713557,3.4415430541017713
1506652713565,3.4415430541017713
1506652713573,4.730422716850001
1506652713581,-0.12881705261958132
1506652713589,3.331367120420964
1506652713598,0.36514833207462516
1506652713606,-0.032656906127499497
1506652713614,0.9673430938725005
1506652713619,-4.0326569061274995
1506652713627,-0.032656906127499497
1506652713635,-5.0326569061274995
1506652713643,-7.0326569061274995
1506652713651,-6.0326569061274995
1506652713659,-11.0326569061275
1506652713667,-7.0326569061274995
1506652713675,-9.0326569061275
1506652713684,-5.0326569061274995
1506652713692,4.9673430938725005
1506652713700,14.365148332074625
1506652713709,37.331367120420964
1506652713717,57.87118294738042
1506652713726,86.73042271685
1506652713733,119.44154305410177
1506652713741,144.44154305410177
1506652713750,175.44154305410177
1506652713758,195.44154305410177
1506652713766,212.44154305410177
1506652713774,224.44154305410177
1506652713778,223.44154305410177
1506652713786,221.44154305410177
1506652713795,203.88046551883326
1506652713803,181.82081108969186
1506652713811,153.75007760799184
1506652713819,121.75007760799184
1506652713827,96.75007760799184
1506652713835,62.75007760799184
1506652713844,31.75007760799184
1506652713852,5.750077607991841
1506652713860,-25.24992239200816
1506652713868,-44.24992239200816
1506652713876,-66.24992239200816
1506652713885,-82.24992239200816
1506652713892,-91.24992239200816
1506652713901,-102.24992239200816
1506652713909,-103.24992239200816
1506652713917,-106.24992239200816
1506652713926,-104.24992239200816
1506652713934,-96.24992239200816
1506652713938,-92.24992239200816
1506652713946,-78.24992239200816
1506652713954,-69.24992239200816
1506652713962,-56.24992239200816
1506652713970,-38.24992239200816
1506652713979,-23.91518250829398
1506652713987,-0.11953448116673826
1506652713995,14.445791204965701
1506652714003,30.497753036170707
1506652714011,45.2479725721322
1506652714020,50.2479725721322
1506652714028,61.2479725721322
1506652714036,62.2479725721322
1506652714044,64.2479725721322
1506652714052,68.2479725721322
1506652714061,60.2479725721322
1506652714069,61.2479725721322
1506652714077,53.2479725721322
1506652714085,44.2479725721322
1506652714093,39.2479725721322
1506652714097,26.2479725721322
1506652714106,20.2479725721322
1506652714114,9.247972572132198
1506652714122,-0.7520274278678016
1506652714131,-5.752027427867802
1506652714138,-17.7520274278678
1506652714146,-19.7520274278678
1506652714155,-27.7520274278678
1506652714163,-32.7520274278678
1506652714171,-31.7520274278678
1506652714179,-40.855137471477576
1506652714187,-40.527618270291384
1506652714195,-43.00000624514644
1506652714204,-44.139297203923434
1506652714212,-40.38534709022679
1506652714221,-42.57866611051446
1506652714229,-34.75410512809674
1506652714237,-35.12293574545322
1506652714245,-32.538362576873
1506652714253,-25.542994578435696
1506652714257,-25.608732520320416
1506652714265,-18.90387503208791
1506652714273,-14.90540952935055
1506652714281,-13.554208795034299
1506652714289,-7.734031260353959
1506652714297,-8.734031260353959
1506652714306,-2.7340312603539587
1506652714314,-1.7340312603539587
1506652714323,-0.7340312603539587
1506652714331,4.265968739646041
1506652714338,1.2659687396460413
1506652714347,7.445791204965701
1506652714355,7.09459047064945
1506652714363,5.09612496791209
1506652714371,9.391267479679584
1506652714379,5.457005421564304
1506652714388,7.4616374231270015
1506652714396,4.877064254546781
1506652714405,2.2458948719032605
1506652714413,3.4213338894855383
1506652714417,-2.3853470902267873
1506652714425,-1.1392972039234337
1506652714434,-3.1392972039234337
1506652714442,-6.139297203923434
1506652714450,-1.1392972039234337
1506652714458,-0.1392972039234337
1506652714466,12.860702796076566
1506652714474,27.614652909773213
1506652714483,48.50168669826013
1506652714491,77.42133388948554
1506652714499,99.24589487190326
1506652714507,130.87706425454678
1506652714515,159.461637423127
1506652714524,179.4570054215643
1506652714532,201.39126747967958
1506652714540,208.0961249679121
1506652714548,217.09459047064945
1506652714556,214.26596873964604
1506652714565,200.78044886198484
1506652714573,188.87566686898333
1506652714577,163.39409282701513
1506652714585,142.05581922894663
1506652714593,114.05581922894663
1506652714601,82.05581922894663
1506652714609,56.05581922894663
1506652714618,22.055819228946632
1506652714626,-1.944180771053368
1506652714634,-27.944180771053368
1506652714642,-49.94418077105337
1506652714650,-61.94418077105337
1506652714658,-79.94418077105337
1506652714667,-85.94418077105337
1506652714675,-91.94418077105337
1506652714683,-96.94418077105337
1506652714691,-90.94418077105337
1506652714699,-92.94418077105337
1506652714708,-84.94418077105337
1506652714716,-78.94418077105337
1506652714724,-71.94418077105337
1506652714732,-57.94418077105337
1506652714736,-51.60590717298487
1506652714745,-34.12433313101667
1506652714753,-16.94186978081217
1506652714761,-5.49831330173987
1506652714769,16.10899741151934
1506652714777,26.1081931003161
1506652714786,40.1081931003161
1506652714794,48.1081931003161
1506652714802,52.1081931003161
1506652714810,61.1081931003161
1506652714818,59.1081931003161
1506652714827,61.1081931003161
1506652714835,59.1081931003161
1506652714843,53.1081931003161
1506652714852,52.1081931003161
1506652714860,41.1081931003161
1506652714868,35.1081931003161
1506652714876,27.1081931003161
1506652714884,16.1081931003161
1506652714892,12.1081931003161
1506652714900,-0.8918068996838997
1506652714904,-7.8918068996839
1506652714913,-15.8918068996839
1506652714921,-25.8918068996839
1506652714929,-25.8918068996839
1506652714937,-34.8918068996839
1506652714946,-37.25001100686052
1506652714954,-41.23460615175878
1506652714962,-45.89100258848066
1506652714970,-41.817308804615266
1506652714978,-45.60645068056186
1506652714987,-39.72562681221763
1506652714995,-37.93088307315429
1506652715003,-36.98523063572992
1506652715011,-30.094698250925376
1506652715019,-30.54678727235779
1506652715027,-23.744132631826858
1506652715036,-20.918290489014908
1506652715044,-19.941451847602536
1506652715051,-12.120784778885309
1506652715059,-13.163384520532361
1506652715065,-9.49831330173987
1506652715072,-5.808613929062005
1506652715080,-6.808613929062005
1506652715089,0.19138607093799465
1506652715097,-0.8086139290620054
1506652715106,3.1913860709379946
1506652715113,4.191386070937995
1506652715122,1.1913860709379946
1506652715130,7.836615479467639
1506652715138,3.8792152211146913
1506652715146,6.058548152397464
1506652715154,7.0817095109850925
1506652715162,3.255867368173142
1506652715170,8.45321272764221
1506652715178,3.9053017490746242
1506652715187,4.01476936427008
1506652715196,5.069116926845709
1506652715204,0.0691169268457088
1506652715212,2.069116926845709
1506652715220,-2.930883073154291
1506652715224,-0.9308830731542912
1506652715232,3.069116926845709
1506652715241,7.069116926845709
1506652715250,24.06911692684571
1506652715257,36.01476936427008
1506652715266,61.905301749074624
1506652715274,89.45321272764221
1506652715281,115.25586736817314
1506652715290,150.0817095109851
1506652715298,174.05854815239746
1506652715306,198.8792152211147
1506652715314,218.83661547946764
1506652715322,224.191386070938
1506652715330,233.02335774818988
1506652715338,223.14621667613244
1506652715346,211.69482561775214
1506652715355,195.78462697810608
1506652715363,168.88373659339237
1506652715371,148.88373659339237
1506652715379,115.88373659339237
1506652715383,86.88373659339237
1506652715392,58.88373659339237
1506652715400,26.88373659339237
1506652715408,2.8837365933923707
1506652715416,-26.11626340660763
1506652715426,-46.11626340660763
1506652715433,-61.11626340660763
1506652715442,-77.11626340660763
1506652715450,-81.11626340660763
1506652715458,-90.11626340660763
1506652715466,-90.11626340660763
1506652715474,-87.11626340660763
1506652715482,-88.11626340660763
1506652715490,-78.11626340660763
1506652715498,-74.11626340660763
1506652715507,-64.11626340660763
1506652715514,-53.11626340660763
1506652715523,-47.11626340660763
1506652715531,-29.215373021893924
1506652715539,-18.121912421657782
1506652715543,-0.9766422518101194
1506652715552,12.924775515224951
1506652715560,20.877761323706636
1506652715568,36.84083472882412
1506652715576,39.84083472882412
1506652715585,46.84083472882412
1506652715593,52.84083472882412
1506652715601,50.84083472882412
1506652715610,55.84083472882412
1506652715618,50.84083472882412
1506652715626,46.84083472882412
1506652715634,44.84083472882412
1506652715642,35.84083472882412
1506652715650,33.84083472882412
1506652715658,22.84083472882412
1506652715667,15.84083472882412
1506652715674,10.84083472882412
1506652715683,-2.1591652711758798
1506652715691,-4.15916527117588
1506652715698,-13.15916527117588
1506652715703,-17.15916527117588
1506652715711,-19.15916527117588
1506652715719,-28.15916527117588
1506652715728,-27.15916527117588
1506652715736,-33.732596034962796
1506652715745,-34.33729851464307
1506652715753,-33.500503207042414
1506652715761,-37.77923211975008
1506652715769,-31.06333489118208
1506652715777,-34.3764580948432
1506652715786,-31.84365585807575
1506652715793,-27.05059725799947
1506652715802,-28.686127204474133
1506652715810,-19.686313955544676
1506652715818,-21.463165618364258
1506652715826,-17.647154471721194
1506652715835,-12.073553394355145
1506652715842,-14.075224484775049
1506652715851,-6.253852906154293
1506652715858,-8.253852906154293
1506652715863,-4.253852906154293
1506652715871,-1.2538529061542931
1506652715879,-3.253852906154293
1506652715887,2.746147093845707
1506652715895,1.7461470938457069
1506652715904,1.7461470938457069
1506652715912,5.746147093845707
1506652715920,2.746147093845707
1506652715928,7.746147093845707
1506652715936,4.924775515224951
1506652715945,3.9264466056448555
1506652715953,7.352845528278806
1506652715962,2.5368343816357424
1506652715970,5.3136860444553236
1506652715978,1.3138727955258673
1506652715987,1.9494027420005295
1506652715995,3.9494027420005295
1506652716003,-2.0505972579994705
1506652716011,1.9494027420005295
1506652716019,-2.0505972579994705
1506652716023,-3.0505972579994705
1506652716031,0.9494027420005295
1506652716039,0.9494027420005295
1506652716047,13.94940274200053
1506652716055,26.94940274200053
1506652716063,45.31387279552587
1506652716072,73.31368604445532
1506652716080,96.53683438163574
1506652716089,131.3528455282788
1506652716097,156.92644660564486
1506652716105,182.7461470938457
1506652716113,207.61084379885557
1506652716121,218.5589933094676
1506652716130,231.48764657547963
1506652716137,228.619756163021
1506652716146,220.96257922266705
1506652716153,210.11532960086265
1506652716161,183.77144310278885
1506652716170,157.19930163543563
1506652716178,128.19930163543563
1506652716182,98.19930163543563
1506652716190,70.19930163543563
1506652716198,35.19930163543563
1506652716207,11.199301635435631
1506652716215,-18.80069836456437
1506652716223,-42.80069836456437
1506652716232,-58.80069836456437
1506652716239,-78.80069836456437
1506652716248,-85.80069836456437
1506652716256,-94.80069836456437
1506652716264,-98.80069836456437
1506652716272,-96.80069836456437
1506652716280,-99.80069836456437
1506652716289,-90.80069836456437
1506652716297,-87.80069836456437
1506652716305,-80.80069836456437
1506652716313,-66.80069836456437
1506652716322,-60.80069836456437
1506652716331,-45.183389271923545
1506652716338,-27.515023500056373
1506652716342,-15.884670399137349
1506652716350,4.619756163021009
1506652716359,12.193949153223514
1506652716367,30.74752094040582
1506652716375,39.749938773707015
1506652716383,46.749938773707015
1506652716391,56.749938773707015
1506652716399,55.749938773707015
1506652716408,61.749938773707015
1506652716416,59.749938773707015
1506652716424,55.749938773707015
1506652716432,56.749938773707015
1506652716441,45.749938773707015
1506652716449,42.749938773707015
1506652716457,34.749938773707015
1506652716465,23.749938773707015
1506652716473,19.749938773707015
1506652716481,7.749938773707015
1506652716490,2.749938773707015
1506652716498,-6.250061226292985
1506652716506,-14.250061226292985
1506652716510,-16.250061226292985
1506652716518,-27.250061226292985
1506652716527,-26.250061226292985
1506652716535,-32.65024083999765
1506652716543,-38.08389820111637
1506652716551,-35.08389820111637
1506652716559,-39.25247905959418
1506652716567,-36.63574001608782
1506652716576,-37.81216217200597
1506652716584,-37.518108452133504
1506652716593,-31.61446809874718
1506652716600,-35.55071015883294
1506652716608,-27.55978577599683
1506652716617,-27.201872643689626
1506652716625,-26.58011722040135
1506652716633,-18.390864335341575
1506652716641,-18.480965384996807
1506652716649,-11.806050846776486
1506652716657,-10.15481648714649
1506652716665,-10.15481648714649
1506652716669,-3.1548164871464905
1506652716678,-5.1548164871464905
1506652716686,-0.15481648714649054
1506652716694,0.8451835128535095
1506652716702,0.8451835128535095
1506652716711,5.8451835128535095
1506652716719,2.8451835128535095
1506652716727,5.8451835128535095
1506652716736,5.8451835128535095
1506652716743,3.193949153223514
1506652716752,8.519034615003193
1506652716760,3.6091356646584245
1506652716768,5.419882779598652
1506652716776,3.798127356310374
1506652716784,1.4402142240031708
1506652716792,4.449289841167058
1506652716801,-2.550710158832942
1506652716809,0.44928984116705806
1506652716817,-1.550710158832942
1506652716825,-5.550710158832942
1506652716830,-1.550710158832942
1506652716838,-6.550710158832942
1506652716846,0.44928984116705806
1506652716854,7.449289841167058
1506652716862,18.449289841167058
1506652716870,40.44021422400317
1506652716878,59.798127356310374
1506652716887,89.41988277959865
1506652716895,116.60913566465842
1506652716903,143.5190346150032
1506652716911,174.8451835128535
1506652716920,192.82920880692882
1506652716928,212.47305650705147
1506652716936,224.45626258496634
1506652716944,225.44215134577644
1506652716952,226.3013679273459
1506652716961,208.95239441999348
1506652716969,193.2241206917808
1506652716977,168.75358787357015
1506652716985,139.88436299235383
1506652716989,114.28319058110964
1506652716997,80.28319058110964
1506652717005,52.283190581109636
1506652717014,24.283190581109636
1506652717022,-7.716809418890364
1506652717031,-28.716809418890364
1506652717038,-54.716809418890364
1506652717046,-69.71680941889036
1506652717055,-84.71680941889036
1506652717063,-97.71680941889036
1506652717071,-100.71680941889036
1506652717079,-107.71680941889036
1506652717087,-105.71680941889036
1506652717096,-102.71680941889036
1506652717104,-100.71680941889036
1506652717112,-89.71680941889036
1506652717120,-84.71680941889036
1506652717129,-69.71680941889036
1506652717137,-57.716809418890364
1506652717144,-44.11563700764617
1506652717149,-21.775879308219203
1506652717157,-12.49244221435896
1506652717165,10.301367927345893
1506652717173,23.639328654927283
1506652717181,38.47480816559249
1506652717190,52.47480816559249
1506652717198,56.47480816559249
1506652717206,64.47480816559249
1506652717214,70.47480816559249
1506652717223,66.47480816559249
1506652717231,69.47480816559249
1506652717239,62.47480816559249
1506652717247,58.47480816559249
1506652717255,53.47480816559249
1506652717264,42.47480816559249
1506652717271,38.47480816559249
1506652717280,24.474808165592492
1506652717288,17.474808165592492
1506652717296,9.474808165592492
1506652717304,-2.525191834407508
1506652717308,-4.525191834407508
1506652717316,-16.525191834407508
1506652717325,-20.525191834407508
1506652717333,-23.525191834407508
1506652717341,-32.471570464497916
1506652717349,-32.241971699675844
1506652717358,-38.66755019117221
1506652717366,-38.746764645137375
1506652717374,-38.496684585233766
1506652717382,-40.9541606279534
1506652717390,-35.17651362827581
1506652717398,-36.24337355923683
1506652717407,-32.25943085127949
1506652717415,-28.355987771198272
1506652717423,-29.360671345072717
1506652717432,-21.690880165969645
1506652717439,-22.44725331189801
1506652717447,-18.698632072654107
1506652717455,-14.831824472877315
1506652717464,-17.070871049571736
1506652717468,-12.49244221435896
1506652717477,-13.49244221435896
1506652717484,-9.49244221435896
1506652717493,-5.4924422143589595
1506652717501,-7.4924422143589595
1506652717510,-1.4924422143589595
1506652717518,-2.0708710495717355
1506652717526,2.168175527122685
1506652717534,6.5527466881019905
1506652717542,4.309119834030355
1506652717550,8.639328654927283
1506652717558,4.644012228801728
1506652717567,6.74056914872051
1506652717575,7.756626440763171
1506652717583,3.8234863717241865
1506652717592,8.0458393720466
1506652717600,2.5033154147662344
1506652717608,4.253235354862625
1506652717616,5.253235354862625
1506652717624,0.2532353548626247
1506652717629,8.253235354862625
1506652717637,12.253235354862625
1506652717645,25.253235354862625
1506652717652,45.503315414766234
1506652717661,63.0458393720466
1506652717670,92.82348637172419
1506652717678,117.75662644076317
1506652717686,145.7405691487205
1506652717694,172.64401222880173
1506652717702,190.30911983403035
1506652717710,210.92856734147142
1506652717718,218.552746688102
1506652717727,220.16817552712268
1506652717735,216.92912895042826
1506652717743,198.59790819920886
1506652717751,182.33966857308047
1506652717759,156.93856415046076
1506652717768,128.62855044697744
1506652717776,100.62855044697744
1506652717784,66.62855044697744
1506652717788,40.62855044697744
1506652717796,6.628550446977442
1506652717804,-20.371449553022558
1506652717813,-43.37144955302256
1506652717821,-69.37144955302256
1506652717829,-82.37144955302256
1506652717837,-99.37144955302256
1506652717846,-109.37144955302256
1506652717854,-114.37144955302256
1506652717861,-122.37144955302256
1506652717870,-117.37144955302256
1506652717878,-118.37144955302256
1506652717886,-112.37144955302256
1506652717894,-101.37144955302256
1506652717902,-96.37144955302256
1506652717911,-78.37144955302256
1506652717919,-67.0802817147624
1506652717927,-48.66033142691953
1506652717936,-26.002490898716758
1506652717943,-8.071432658528579
1506652717947,11.993903881448716
1506652717955,28.6925836274562
1506652717964,43.680397656829825
1506652717973,61.17882981847595
1506652717981,66.17882981847595
1506652717989,76.17882981847595
1506652717997,77.17882981847595
1506652718006,79.17882981847595
1506652718014,80.17882981847595
1506652718022,72.17882981847595
1506652718030,71.17882981847595
1506652718038,62.17882981847595
1506652718046,52.17882981847595
1506652718054,45.17882981847595
1506652718062,31.178829818475947
1506652718071,25.178829818475947
1506652718079,12.178829818475947
1506652718087,3.178829818475947
1506652718096,-2.821170181524053
1506652718104,-15.821170181524053
1506652718108,-17.821170181524053
1506652718116,-26.821170181524053
1506652718125,-31.399986166465396
1506652718133,-34.319602343170175
1506652718140,-40.82349031386855
1506652718148,-40.78897939997876
1506652718157,-46.006096118551284
1506652718165,-47.07143265852858
1506652718173,-43.48928279308808
1506652718182,-50.13059729611928
1506652718190,-44.00249089871676
1506652718198,-48.66033142691953
1506652718206,-46.918010394456246
1506652718214,-42.08028171476241
1506652718222,-43.08028171476241
1506652718231,-35.08028171476241
1506652718238,-33.08028171476241
1506652718246,-31.080281714762407
1506652718256,-25.080281714762407
1506652718262,-26.080281714762407
1506652718267,-17.918010394456246
1506652718275,-17.744436430607664
1506652718283,-10.002490898716758
1506652718291,-4.1305972961192765
1506652718299,-2.48928279308808
1506652718309,4.993903881448716
1506652718317,6.211020600021243
1506652718325,10.56396637873496
1506652718333,16.176509686131453
1506652718341,17.680397656829825
1506652718350,32.600013833534604
1506652718358,44.95609881884144
1506652718366,62.95609881884144
1506652718374,89.95609881884144
1506652718382,111.95609881884144
1506652718390,142.95609881884144
1506652718398,165.95609881884144
1506652718407,189.6000138335346
1506652718415,209.17650968613145
1506652718423,217.56396637873496
1506652718431,226.21102060002124
1506652718435,221.19201502223848
1506652718443,212.51071720691192
1506652718451,198.86940270388072
1506652718459,171.0301309269962
1506652718467,151.25556356939234
1506652718476,124.08198960554375
1506652718484,89.2327822107149
1506652718494,63.2327822107149
1506652718501,29.232782210714902
1506652718509,4.232782210714902
1506652718517,-24.767217789285098
1506652718526,-49.7672177892851
1506652718533,-65.7672177892851
1506652718542,-87.7672177892851
1506652718550,-96.7672177892851
1506652718558,-107.7672177892851
1506652718566,-115.7672177892851
1506652718574,-113.7672177892851
1506652718582,-117.7672177892851
1506652718590,-111.7672177892851
1506652718595,-107.7672177892851
1506652718603,-101.7672177892851
1506652718611,-87.7672177892851
1506652718619,-81.7672177892851
1506652718628,-60.744436430607664
1506652718636,-46.96986907300379
1506652718644,-32.042997667356076
1506652718652,-5.346826857008637
1506652718661,6.192015022238479
1506652718669,29.097114617545856
1506652718677,41.56396637873496
1506652718685,54.95609881884144
1506652718693,66.95609881884144
1506652718701,69.95609881884144
1506652718709,76.95609881884144
1506652718717,76.95609881884144
1506652718726,74.95609881884144
1506652718734,75.95609881884144
1506652718742,65.95609881884144
1506652718750,62.95609881884144
1506652718754,53.95609881884144
1506652718763,42.95609881884144
1506652718771,36.95609881884144
1506652718779,23.95609881884144
1506652718787,17.95609881884144
1506652718795,6.95609881884144
1506652718804,-4.04390118115856
1506652718811,-8.04390118115856
1506652718820,-20.04390118115856
1506652718829,-21.04390118115856
1506652718837,-28.432111825944048
1506652718845,-37.902885382454144
1506652718853,-34.080461151387965
1506652718861,-44.34076302555434
1506652718869,-43.80798497776152
1506652718877,-44.34682685700864
1506652718885,-47.42016938885439
1506652718893,-47.042997667356076
1506652718901,-49.53805306043239
1506652718909,-44.96986907300379
1506652718914,-47.7672177892851
1506652718922,-46.90945040317558
1506652718930,-37.90945040317558
1506652718939,-38.90945040317558
1506652718947,-32.90945040317558
1506652718955,-28.909450403175583
1506652718963,-27.909450403175583
1506652718971,-20.909450403175583
1506652718979,-22.767217789285098
1506652718988,-11.414422249067798
1506652718996,-8.53805306043239
1506652719004,-9.042997667356076
1506652719012,2.57983061114561
1506652719020,-0.3468268570086366
1506652719029,6.659236974445662
1506652719038,12.919538848612035
1506652719045,12.097114617545856
1506652719054,26.567888174055952
1506652719062,33.340728806484435
1506652719070,51.340728806484435
1506652719074,73.34072880648444
1506652719082,95.34072880648444
1506652719091,127.34072880648444
1506652719099,151.34072880648444
1506652719107,181.34072880648444
1506652719115,204.56788817405595
1506652719123,216.91953884861204
1506652719132,233.3771357809697
1506652719140,233.65923697444566
1506652719148,229.5798306111456
1506652719156,218.74926955248344
1506652719164,198.4619469395676
1506652719173,182.5855777509322
1506652719181,147.09054959682442
1506652719189,120.96913781922655
1506652719197,89.96913781922655
1506652719207,55.969137819226546
1506652719214,29.969137819226546
1506652719222,-5.030862180773454
1506652719229,-28.030862180773454
1506652719234,-53.030862180773454
1506652719242,-77.03086218077345
1506652719250,-89.03086218077345
1506652719258,-105.03086218077345
1506652719266,-113.03086218077345
1506652719274,-118.03086218077345
1506652719283,-123.03086218077345
1506652719291,-116.03086218077345
1506652719299,-115.03086218077345
1506652719307,-106.03086218077345
1506652719315,-96.03086218077345
1506652719324,-88.03086218077345
1506652719332,-70.03086218077345
1506652719340,-54.37645706534016
1506652719348,-36.4144222490678
1506652719356,-17.25073044751656
1506652719364,-2.6441599791896806
1506652719373,23.923852599299664
1506652719381,34.377135780969695
1506652719389,53.12312107580624
1506652719393,63.12312107580624
1506652719401,66.12312107580624
1506652719409,76.12312107580624
1506652719418,74.12312107580624
1506652719426,76.12312107580624
1506652719434,75.12312107580624
1506652719442,65.12312107580624
1506652719450,65.12312107580624
1506652719458,53.12312107580624
1506652719467,46.12312107580624
1506652719475,38.12312107580624
1506652719483,25.12312107580624
1506652719491,21.12312107580624
1506652719499,8.123121075806239
1506652719508,0.12312107580623888
1506652719516,-5.876878924193761
1506652719525,-17.87687892419376
1506652719533,-18.87687892419376
1506652719540,-30.687966442159507
1506652719548,-36.622864219030305
1506652719553,-37.89937215246499
1506652719561,-45.076147400700336
1506652719569,-43.841506379860164
1506652719577,-49.64415997918968
1506652719586,-48.71767223793961
1506652719594,-45.25073044751656
1506652719602,-52.37645706534016
1506652719610,-45.73373533008282
1506652719618,-50.030862180773454
1506652719627,-45.030862180773454
1506652719635,-40.030862180773454
1506652719644,-40.030862180773454
1506652719652,-31.030862180773454
1506652719660,-32.030862180773454
1506652719668,-27.030862180773454
1506652719676,-23.030862180773454
1506652719685,-22.775399562322264
1506652719693,-12.733735330082823
1506652719701,-13.376457065340162
1506652719709,-4.71767223793961
1506652719713,0.3558400208103194
1506652719721,1.1584936201398364
1506652719729,10.923852599299664
1506652719738,10.100627847535009
1506652719745,17.36543364284421
1506652719754,31.312033557840493
1506652719762,40.31203355784049
1506652719770,64.3120335578405
1506652719779,84.3120335578405
1506652719787,111.3120335578405
1506652719795,141.3120335578405
1506652719803,164.3120335578405
1506652719811,193.3120335578405
1506652719819,208.43226922459309
1506652719828,223.3654336428442
1506652719836,233.100627847535
1506652719845,225.15849362013984
1506652719852,219.2823277620604
1506652719861,204.00219177243946
1506652719869,180.26626466991718
1506652719873,157.22460043767774
1506652719881,123.36008362515042
1506652719889,98.36008362515042
1506652719898,65.36008362515042
1506652719905,34.36008362515042
1506652719913,8.360083625150423
1506652719922,-25.639916374849577
1506652719930,-46.63991637484958
1506652719938,-70.63991637484958
1506652719946,-87.63991637484958
1506652719955,-99.63991637484958
1506652719963,-113.63991637484958
1506652719971,-115.63991637484958
1506652719979,-122.63991637484958
1506652719987,-122.63991637484958
1506652719996,-116.63991637484958
1506652720004,-114.63991637484958
1506652720012,-101.63991637484958
1506652720020,-92.63991637484958
1506652720028,-79.63991637484958
1506652720036,-59.775399562322264
1506652720040,-46.927730734770535
1506652720049,-18.99780822756054
1506652720057,-5.566439742310422
1506652720065,18.601070944993296
1506652720073,39.36543364284421
1506652720082,47.432269224593085
1506652720090,63.432269224593085
1506652720098,68.43226922459309
1506652720106,73.43226922459309
1506652720115,79.43226922459309
1506652720123,75.43226922459309
1506652720131,77.43226922459309
1506652720139,70.43226922459309
1506652720147,63.432269224593085
1506652720155,58.432269224593085
1506652720163,44.432269224593085
1506652720171,39.432269224593085
1506652720180,25.432269224593085
1506652720188,14.432269224593085
1506652720196,7.432269224593085
1506652720200,-7.567730775406915
1506652720208,-12.567730775406915
1506652720217,-22.567730775406915
1506652720225,-29.567730775406915
1506652720234,-30.567730775406915
1506652720241,-40.56954173354751
1506652720249,-40.398929055006704
1506652720257,-47.50366729766722
1506652720266,-52.56643974231042
1506652720274,-48.99780822756054
1506652720282,-53.50837326796557
1506652720290,-53.927730734770535
1506652720298,-54.77727531369254
1506652720306,-51.852900305551145
1506652720315,-44.852900305551145
1506652720323,-46.852900305551145
1506652720331,-38.852900305551145
1506652720340,-37.852900305551145
1506652720348,-33.852900305551145
1506652720356,-27.852900305551145
1506652720360,-29.852900305551145
1506652720368,-21.852900305551145
1506652720376,-19.77727531369254
1506652720385,-17.927730734770535
1506652720393,-5.508373267965567
1506652720401,-6.566439742310422
1506652720409,3.4963327023327793
1506652720417,7.601070944993296
1506652720426,12.43045826645249
1506652720434,22.66428746095022
1506652720442,33.13298297111788
1506652720450,54.13298297111788
1506652720458,74.13298297111788
1506652720466,100.13298297111788
1506652720474,132.13298297111788
1506652720482,156.13298297111788
1506652720490,187.13298297111788
1506652720499,208.13298297111788
1506652720507,224.13298297111788
1506652720515,235.66428746095022
1506652720520,236.4304582664525
1506652720528,230.49633270233278
1506652720537,214.5725275971298
1506652720545,194.49162673203443
1506652720553,167.22272468630746
1506652720561,135.14709969444885
1506652720569,108.14709969444885
1506652720577,76.14709969444885
1506652720585,41.147099694448855
1506652720593,13.147099694448855
1506652720601,-21.852900305551145
1506652720610,-44.852900305551145
1506652720618,-69.85290030555115
1506652720626,-90.85290030555115
1506652720635,-103.85290030555115
1506652720642,-119.85290030555115
1506652720651,-123.85290030555115
1506652720659,-129.85290030555115
1506652720667,-132.85290030555115
1506652720675,-125.85290030555115
1506652720680,-125.85290030555115
1506652720688,-112.85290030555115
1506652720696,-101.85290030555115
1506652720705,-88.85290030555115
1506652720713,-67.85290030555115
1506652720721,-52.2853230551612
1506652720729,-22.305942340901538
1506652720737,-4.427472402870194
1506652720745,19.484127191735922
1506652720753,37.48412719173592
1506652720761,46.48412719173592
1506652720769,62.48412719173592
1506652720778,71.48412719173592
1506652720785,74.48412719173592
1506652720794,81.48412719173592
1506652720802,77.48412719173592
1506652720810,77.48412719173592
1506652720819,73.48412719173592
1506652720827,63.48412719173592
1506652720835,57.48412719173592
1506652720840,43.48412719173592
1506652720848,36.48412719173592
1506652720856,23.484127191735922
1506652720865,9.484127191735922
1506652720872,3.4841271917359222
1506652720881,-11.515872808264078
1506652720889,-17.515872808264078
1506652720897,-26.515872808264078
1506652720906,-36.51587280826408
1506652720913,-38.19847373946271
1506652720921,-52.427472402870194
1506652720929,-53.30594234090154
1506652720938,-59.53141312861868
1506652720946,-66.2853230551612
1506652720954,-60.2853230551612
1506652720962,-63.2853230551612
1506652720970,-58.2853230551612
1506652720978,-55.2853230551612
1506652720986,-54.2853230551612
1506652720995,-45.2853230551612
1506652720999,-46.2853230551612
1506652721007,-39.2853230551612
1506652721016,-35.2853230551612
1506652721023,-34.2853230551612
1506652721032,-27.2853230551612
1506652721040,-27.2853230551612
1506652721048,-22.2853230551612
1506652721056,-16.349837759949367
1506652721066,-13.53141312861868
1506652721073,1.694057659098462
1506652721081,13.801526260537287
1506652721089,33.48412719173592
1506652721097,54.48412719173592
1506652721106,76.48412719173592
1506652721114,110.48412719173592
1506652721122,135.48412719173592
1506652721130,167.48412719173592
1506652721138,193.48412719173592
1506652721146,211.48412719173592
1506652721155,231.48412719173592
1506652721158,236.48412719173592
1506652721167,240.48412719173592
1506652721176,234.48412719173592
1506652721184,215.8015262605373
1506652721192,198.13122463680298
1506652721200,162.46858687138132
1506652721209,133.65016224005063
1506652721216,103.65016224005063
1506652721225,68.65016224005063
1506652721233,40.65016224005063
1506652721241,4.6501622400506335
1506652721249,-21.349837759949367
1506652721257,-47.34983775994937
1506652721265,-72.34983775994937
1506652721273,-85.34983775994937
1506652721281,-104.34983775994937
1506652721289,-111.34983775994937
1506652721298,-116.34983775994937
1506652721306,-122.34983775994937
1506652721314,-117.34983775994937
1506652721318,-118.34983775994937
1506652721327,-109.34983775994937
1506652721335,-99.34983775994937
1506652721343,-91.34983775994937
1506652721351,-73.34983775994937
1506652721359,-62.34983775994937
1506652721367,-38.23344964009982
1506652721376,-16.868775363197017
1506652721384,-1.3618955873263303
1506652721393,27.225672645745703
1506652721400,36.2256726457457
1506652721408,50.2256726457457
1506652721417,61.2256726457457
1506652721425,64.2256726457457
1506652721434,74.2256726457457
1506652721442,72.2256726457457
1506652721449,73.2256726457457
1506652721457,72.2256726457457
1506652721466,62.2256726457457
1506652721474,60.2256726457457
1506652721478,47.2256726457457
1506652721486,39.2256726457457
1506652721494,31.225672645745703
1506652721502,16.225672645745703
1506652721510,12.225672645745703
1506652721519,-1.7743273542542966
1506652721527,-9.774327354254297
1506652721536,-15.774327354254297
1506652721544,-26.774327354254297
1506652721552,-26.774327354254297
1506652721560,-40.41279699346836
1506652721569,-43.36189558732633
1506652721576,-47.86877536319702
1506652721585,-54.06461141952235
1506652721592,-49.23344964009982
1506652721601,-59.10882319337884
1506652721609,-56.1528941024813
1506652721617,-51.1528941024813
1506652721625,-53.1528941024813
1506652721634,-45.1528941024813
1506652721638,-44.1528941024813
1506652721646,-40.1528941024813
1506652721654,-34.1528941024813
1506652721662,-35.1528941024813
1506652721670,-26.152894102481298
1506652721678,-26.152894102481298
1506652721687,-22.152894102481298
1506652721695,-18.152894102481298
1506652721703,-20.152894102481298
1506652721711,-5.2334496400998205
1506652721719,-4.06461141952235
1506652721730,2.5567870083417574
1506652721736,20.63810441267367
1506652721744,34.58720300653164
1506652721752,59.58720300653164
1506652721761,82.58720300653164
1506652721769,113.58720300653164
1506652721777,147.58720300653164
1506652721786,174.58720300653164
1506652721794,208.58720300653164
1506652721802,227.58720300653164
1506652721806,245.58720300653164
1506652721815,258.58720300653164
1506652721823,256.58720300653164
1506652721831,246.55678700834176
1506652721839,230.93538858047765
1506652721847,210.28309790497974
1506652721855,178.86626352206076
1506652721864,144.86626352206076
1506652721872,117.86626352206076
1506652721880,80.86626352206076
1506652721888,47.86626352206076
1506652721896,18.866263522060763
1506652721906,-16.133736477939237
1506652721912,-38.13373647793924
1506652721921,-63.13373647793924
1506652721930,-81.13373647793924
1506652721937,-91.13373647793924
1506652721945,-105.13373647793924
1506652721953,-106.13373647793924
1506652721961,-110.13373647793924
1506652721966,-108.13373647793924
1506652721974,-102.13373647793924
1506652721982,-100.13373647793924
1506652721990,-86.13373647793924
1506652721999,-78.13373647793924
1506652722007,-66.13373647793924
1506652722015,-41.83683968340324
1506652722023,-30.71690209502026
1506652722031,-9.443212991658243
1506652722040,5.575893083225537
1506652722047,22.804109882926866
1506652722055,39.872884921326204
1506652722064,44.872884921326204
1506652722072,56.872884921326204
1506652722080,59.872884921326204
1506652722088,62.872884921326204
1506652722096,65.8728849213262
1506652722105,59.872884921326204
1506652722113,59.872884921326204
1506652722121,52.872884921326204
1506652722125,46.872884921326204
1506652722134,40.872884921326204
1506652722142,26.872884921326204
1506652722150,21.872884921326204
1506652722158,9.872884921326204
1506652722166,-0.12711507867379623
1506652722174,-5.127115078673796
1506652722182,-18.127115078673796
1506652722191,-20.127115078673796
1506652722199,-29.127115078673796
1506652722207,-35.127115078673796
1506652722215,-34.127115078673796
1506652722224,-43.70686819234555
1506652722232,-42.195890117073134
1506652722240,-48.42410691677446
1506652722248,-51.40365462873348
1506652722256,-49.71690209502026
1506652722264,-53.83683968340324
1506652722272,-51.48652672710273
1506652722280,-50.48652672710273
1506652722285,-46.48652672710273
1506652722293,-40.48652672710273
1506652722301,-40.48652672710273
1506652722309,-33.48652672710273
1506652722317,-31.486526727102728
1506652722326,-30.486526727102728
1506652722334,-22.486526727102728
1506652722342,-25.486526727102728
1506652722351,-19.486526727102728
1506652722359,-13.836839683403241
1506652722367,-11.87311028657075
1506652722375,-3.4036546287334772
1506652722384,-2.4241069167744627
1506652722392,11.293131807654447
1506652722400,20.872884921326204
1506652722408,35.79308115666305
1506652722416,58.79308115666305
1506652722425,76.79308115666305
1506652722433,108.79308115666305
1506652722441,137.79308115666305
1506652722445,167.79308115666305
1506652722453,198.79308115666305
1506652722461,218.79308115666305
1506652722470,240.79308115666305
1506652722478,250.79308115666305
1506652722486,246.29313180765445
1506652722494,244.87615037575188
1506652722502,222.59634537126652
1506652722511,205.12688971342925
1506652722519,181.1245499447682
1506652722527,151.1245499447682
1506652722535,124.1245499447682
1506652722543,87.1245499447682
1506652722552,59.124549944768205
1506652722560,26.124549944768205
1506652722568,-4.875450055231795
1506652722576,-26.875450055231795
1506652722585,-52.875450055231795
1506652722592,-65.8754500552318
1506652722601,-79.8754500552318
1506652722605,-90.8754500552318
1506652722613,-91.8754500552318
1506652722621,-97.8754500552318
1506652722629,-94.8754500552318
1506652722637,-91.8754500552318
1506652722646,-87.8754500552318
1506652722653,-76.8754500552318
1506652722662,-71.8754500552318
1506652722670,-57.875450055231795
1506652722678,-46.87311028657075
1506652722686,-30.64745419880984
1506652722694,-10.123849624248123
1506652722703,-0.1004938707594647
1506652722711,21.33470846223622
1506652722719,31.388808122539558
1506652722727,38.54503032571779
1506652722736,50.54503032571779
1506652722744,52.54503032571779
1506652722751,57.54503032571779
1506652722760,58.54503032571779
1506652722764,55.54503032571779
1506652722772,56.54503032571779
1506652722780,47.54503032571779
1506652722788,44.54503032571779
1506652722797,35.54503032571779
1506652722805,24.54503032571779
1506652722813,21.54503032571779
1506652722821,8.54503032571779
1506652722830,1.5450303257177893
1506652722838,-4.454969674282211
1506652722847,-14.45496967428221
1506652722855,-16.45496967428221
1506652722863,-25.45496967428221
1506652722871,-26.45496967428221
1506652722879,-30.45496967428221
1506652722887,-35.61119187746044
1506652722896,-32.66529153776378
1506652722904,-39.36283697591142
1506652722912,-38.883624840604455
1506652722920,-40.100493870759465
1506652722924,-43.093299381291274
1506652722932,-37.12384962424812
1506652722941,-41.64745419880984
1506652722948,-35.21933316406893
1506652722956,-36.875450055231795
1506652722965,-34.875450055231795
1506652722973,-26.875450055231795
1506652722982,-27.875450055231795
1506652722990,-21.875450055231795
1506652722998,-18.875450055231795
1506652723006,-18.875450055231795
1506652723014,-11.875450055231795
1506652723022,-13.875450055231795
1506652723030,-6.711281774732413
1506652723039,-2.219333164068928
1506652723046,-2.6474541988098395
1506652723054,5.906700618708726
1506652723063,3.8995061292405353
1506652723071,9.116375159395545
1506652723079,13.63716302408858
1506652723083,14.334708462236222
1506652723091,27.673021614726963
1506652723100,34.67302161472696
1506652723109,55.67302161472696
1506652723117,78.67302161472696
1506652723125,102.67302161472696
1506652723133,138.67302161472696
1506652723141,163.67302161472696
1506652723150,191.63716302408858
1506652723157,214.11637515939555
1506652723166,229.24575620209612
1506652723174,242.90670061870873
1506652723182,236.78066683593107
1506652723191,233.94366692405555
1506652723199,224.2887182252676
1506652723207,199.50006195205611
1506652723215,180.04326213999377
1506652723223,148.04326213999377
1506652723231,119.04326213999377
1506652723239,88.04326213999377
1506652723244,52.04326213999377
1506652723252,24.04326213999377
1506652723260,-8.956737860006228
1506652723268,-33.95673786000623
