time,value
1506651043033,433
1506651043041,437
1506651043049,438
1506651043057,442
1506651043066,443
1506651043074,445
1506651043082,448
1506651043090,448
1506651043098,450
1506651043106,450
1506651043115,450
1506651043123,452
1506651043132,451
1506651043139,456
1506651043143,458
1506651043152,463
1506651043160,477
1506651043168,492
1506651043176,521
1506651043184,555
1506651043192,595
1506651043201,643
1506651043209,691
1506651043217,741
1506651043226,786
1506651043234,824
1506651043242,856
1506651043250,876
1506651043258,887
1506651043266,887
1506651043274,876
1506651043283,859
1506651043291,832
1506651043299,802
1506651043303,765
1506651043311,726
1506651043319,689
1506651043328,647
1506651043336,610
1506651043344,573
1506651043353,538
1506651043361,510
1506651043369,480
1506651043377,457
1506651043385,435
1506651043394,416
1506651043402,404
1506651043410,391
1506651043418,385
1506651043426,381
1506651043434,380
1506651043442,386
1506651043451,390
1506651043458,401
1506651043463,411
1506651043471,424
1506651043479,441
1506651043488,452
1506651043496,466
1506651043503,478
1506651043512,488
1506651043521,499
1506651043529,503
1506651043537,509
1506651043545,511
1506651043553,510
1506651043562,510
1506651043570,504
1506651043578,500
1506651043586,493
1506651043594,484
1506651043603,477
1506651043611,467
1506651043619,459
1506651043623,450
1506651043631,442
1506651043639,436
1506651043648,429
1506651043656,426
1506651043664,421
1506651043673,417
1506651043680,417
1506651043689,414
1506651043697,414
1506651043705,413
1506651043713,412
1506651043721,414
1506651043730,414
1506651043738,417
1506651043746,418
1506651043754,420
1506651043762,425
1506651043771,426
1506651043779,432
1506651043783,435
1506651043791,437
1506651043799,442
1506651043807,442
1506651043815,445
1506651043824,447
1506651043832,449
1506651043840,451
1506651043848,451
1506651043857,454
1506651043865,453
1506651043873,452
1506651043881,454
1506651043889,451
1506651043897,454
1506651043905,452
1506651043914,453
1506651043922,462
1506651043930,474
1506651043938,495
1506651043942,523
1506651043951,560
1506651043959,606
1506651043967,653
1506651043975,705
1506651043983,754
1506651043991,799
1506651043999,839
1506651044008,866
1506651044016,886
1506651044024,895
1506651044032,894
1506651044040,885
1506651044048,864
1506651044056,838
1506651044064,806
1506651044073,768
1506651044081,730
1506651044089,687
1506651044097,647
1506651044101,607
1506651044110,566
1506651044118,532
1506651044126,498
1506651044135,468
1506651044142,442
1506651044150,419
1506651044159,403
1506651044167,386
1506651044175,377
1506651044184,371
1506651044193,368
1506651044200,373
1506651044208,377
1506651044217,386
1506651044225,398
1506651044233,410
1506651044241,426
1506651044249,439
1506651044257,455
1506651044262,468
1506651044270,480
1506651044278,493
1506651044286,501
1506651044294,508
1506651044303,512
1506651044311,512
1506651044319,513
1506651044327,508
1506651044335,503
1506651044343,496
1506651044352,487
1506651044360,479
1506651044368,469
1506651044376,460
1506651044385,450
1506651044393,441
1506651044401,434
1506651044409,425
1506651044417,420
1506651044422,414
1506651044430,410
1506651044438,408
1506651044446,406
1506651044454,405
1506651044463,405
1506651044471,406
1506651044479,408
1506651044487,409
1506651044495,411
1506651044503,414
1506651044511,417
1506651044520,421
1506651044528,423
1506651044536,427
1506651044544,431
1506651044553,433
1506651044560,438
1506651044568,440
1506651044577,443
1506651044585,445
1506651044589,448
1506651044597,450
1506651044605,450
1506651044614,452
1506651044622,452
1506651044630,452
1506651044638,453
1506651044646,451
1506651044654,450
1506651044662,449
1506651044671,447
1506651044679,446
1506651044687,443
1506651044695,442
1506651044703,442
1506651044712,443
1506651044720,449
1506651044729,458
1506651044737,478
1506651044744,504
1506651044748,539
1506651044757,583
1506651044765,630
1506651044773,681
1506651044781,731
1506651044789,777
1506651044798,819
1506651044806,851
1506651044814,876
1506651044823,889
1506651044831,891
1506651044840,886
1506651044848,867
1506651044856,842
1506651044864,810
1506651044873,771
1506651044880,731
1506651044888,686
1506651044896,642
1506651044904,596
1506651044909,554
1506651044917,515
1506651044926,475
1506651044934,441
1506651044942,413
1506651044949,386
1506651044958,367
1506651044966,351
1506651044975,342
1506651044983,337
1506651044991,337
1506651044999,342
1506651045007,350
1506651045015,365
1506651045023,381
1506651045032,397
1506651045040,418
1506651045048,436
1506651045056,455
1506651045064,473
1506651045069,488
1506651045077,502
1506651045085,511
1506651045095,518
1506651045102,523
1506651045110,522
1506651045118,522
1506651045126,516
1506651045135,509
1506651045143,502
1506651045151,491
1506651045159,480
1506651045167,468
1506651045175,458
1506651045183,447
1506651045192,437
1506651045200,429
1506651045208,419
1506651045216,413
1506651045224,409
1506651045228,403
1506651045237,401
1506651045245,398
1506651045253,398
1506651045261,398
1506651045269,398
1506651045278,400
1506651045286,401
1506651045295,404
1506651045302,408
1506651045310,410
1506651045319,416
1506651045327,420
1506651045336,424
1506651045343,430
1506651045351,433
1506651045359,438
1506651045367,440
1506651045375,443
1506651045383,447
1506651045388,448
1506651045396,451
1506651045404,450
1506651045412,451
1506651045420,452
1506651045429,450
1506651045437,450
1506651045445,448
1506651045453,448
1506651045461,449
1506651045470,451
1506651045478,461
1506651045486,473
1506651045494,495
1506651045502,523
1506651045511,559
1506651045519,603
1506651045527,648
1506651045536,697
1506651045544,745
1506651045548,787
1506651045556,825
1506651045564,854
1506651045572,874
1506651045580,883
1506651045588,881
1506651045596,871
1506651045605,848
1506651045613,819
1506651045622,783
1506651045631,741
1506651045638,697
1506651045646,649
1506651045655,602
1506651045663,558
1506651045671,512
1506651045679,473
1506651045687,437
1506651045695,406
1506651045703,379
1506651045707,356
1506651045716,341
1506651045724,328
1506651045733,323
1506651045740,323
1506651045749,327
1506651045757,338
1506651045765,351
1506651045773,369
1506651045781,388
1506651045789,409
1506651045798,431
1506651045806,451
1506651045814,472
1506651045822,490
1506651045831,504
1506651045839,518
1506651045847,526
1506651045856,532
1506651045863,535
1506651045867,533
1506651045875,529
1506651045884,523
1506651045893,515
1506651045900,505
1506651045908,494
1506651045916,483
1506651045925,470
1506651045933,459
1506651045941,449
1506651045949,438
1506651045957,429
1506651045965,421
1506651045974,414
1506651045982,409
1506651045990,404
1506651045999,403
1506651046007,400
1506651046015,399
1506651046022,399
1506651046027,400
1506651046036,403
1506651046044,404
1506651046052,407
1506651046060,411
1506651046068,415
1506651046076,420
1506651046084,424
1506651046093,429
1506651046101,435
1506651046109,439
1506651046117,445
1506651046125,448
1506651046134,451
1506651046142,455
1506651046149,456
1506651046158,459
1506651046166,459
1506651046176,459
1506651046183,460
1506651046187,459
1506651046195,460
1506651046203,457
1506651046212,457
1506651046220,457
1506651046228,460
1506651046236,471
1506651046244,485
1506651046252,510
1506651046260,542
1506651046268,583
1506651046277,632
1506651046285,683
1506651046293,736
1506651046301,788
1506651046309,836
1506651046318,878
1506651046326,909
1506651046334,912
1506651046342,912
1506651046346,911
1506651046355,912
1506651046363,903
1506651046371,868
1506651046379,826
1506651046387,779
1506651046395,730
1506651046403,677
1506651046412,628
1506651046420,579
1506651046428,532
1506651046437,492
1506651046445,454
1506651046453,423
1506651046461,397
1506651046469,374
1506651046477,359
1506651046486,347
1506651046494,340
1506651046502,339
1506651046510,341
1506651046514,351
1506651046522,362
1506651046531,377
1506651046539,395
1506651046547,414
1506651046555,435
1506651046563,455
1506651046571,474
1506651046579,493
1506651046588,507
1506651046596,521
1506651046604,529
1506651046612,537
1506651046620,540
1506651046629,538
1506651046637,537
1506651046645,529
1506651046654,520
1506651046662,511
1506651046670,499
1506651046674,487
1506651046682,474
1506651046690,461
1506651046699,450
1506651046707,438
1506651046715,430
1506651046723,420
1506651046732,412
1506651046740,407
1506651046748,401
1506651046756,398
1506651046765,396
1506651046773,395
1506651046781,395
1506651046789,395
1506651046797,396
1506651046805,397
1506651046814,401
1506651046821,405
1506651046830,408
1506651046834,413
1506651046843,417
1506651046850,421
1506651046859,426
1506651046867,429
1506651046875,434
1506651046883,438
1506651046892,442
1506651046900,446
1506651046908,448
1506651046916,452
1506651046924,453
1506651046933,455
1506651046940,457
1506651046948,455
1506651046957,456
1506651046965,455
1506651046973,454
1506651046981,454
1506651046989,454
1506651046993,458
1506651047001,465
1506651047010,479
1506651047018,502
1506651047026,531
1506651047035,573
1506651047043,621
1506651047051,671
1506651047059,726
1506651047067,779
1506651047075,829
1506651047084,873
1506651047092,908
1506651047100,911
1506651047108,912
1506651047116,912
1506651047124,911
1506651047133,912
1506651047141,888
1506651047149,848
1506651047154,805
1506651047162,756
1506651047170,705
1506651047178,657
1506651047186,607
1506651047194,562
1506651047203,521
1506651047211,483
1506651047219,450
1506651047227,420
1506651047235,398
1506651047244,378
1506651047252,362
1506651047260,353
1506651047268,347
1506651047276,347
1506651047284,350
1506651047292,358
1506651047301,370
1506651047309,384
1506651047313,401
1506651047321,418
1506651047330,436
1506651047338,455
1506651047346,471
1506651047355,487
1506651047362,501
1506651047371,511
1506651047379,519
1506651047387,524
1506651047395,525
1506651047403,525
1506651047412,522
1506651047420,516
1506651047428,507
1506651047436,499
1506651047444,489
1506651047453,477
1506651047461,467
1506651047469,455
1506651047473,447
1506651047481,437
1506651047489,428
1506651047498,422
1506651047506,415
1506651047514,411
1506651047522,407
1506651047530,404
1506651047538,404
1506651047547,403
1506651047555,405
1506651047563,406
1506651047571,407
1506651047579,410
1506651047587,412
1506651047595,416
1506651047603,418
1506651047612,422
1506651047620,427
1506651047628,429
1506651047633,435
1506651047641,439
1506651047649,442
1506651047657,446
1506651047665,448
1506651047673,452
1506651047681,454
1506651047689,456
1506651047698,458
1506651047706,460
1506651047714,461
1506651047722,461
1506651047731,460
1506651047739,461
1506651047747,458
1506651047755,458
1506651047763,457
1506651047771,455
1506651047780,457
1506651047787,460
1506651047792,469
1506651047800,484
1506651047809,507
1506651047817,540
1506651047825,579
1506651047833,627
1506651047841,678
1506651047849,729
1506651047857,780
1506651047865,824
1506651047874,863
1506651047882,894
1506651047890,910
1506651047898,912
1506651047906,912
1506651047915,906
1506651047923,885
1506651047931,856
1506651047940,824
1506651047947,784
1506651047952,741
1506651047959,699
1506651047968,653
1506651047976,610
1506651047984,569
1506651047993,531
1506651048001,496
1506651048009,464
1506651048017,438
1506651048025,413
1506651048034,395
1506651048042,381
1506651048049,370
1506651048058,366
1506651048066,364
1506651048075,367
1506651048083,375
1506651048091,384
1506651048100,398
1506651048108,412
1506651048112,428
1506651048120,444
1506651048128,460
1506651048136,476
1506651048145,489
1506651048153,501
1506651048161,510
1506651048169,516
1506651048178,522
1506651048186,522
1506651048194,521
1506651048202,517
1506651048210,510
1506651048218,506
1506651048226,496
1506651048235,486
1506651048243,477
1506651048251,466
1506651048259,458
1506651048267,446
1506651048271,439
1506651048280,432
1506651048288,424
1506651048296,421
1506651048304,414
1506651048313,411
1506651048321,410
1506651048329,408
1506651048337,409
1506651048345,410
1506651048354,412
1506651048362,414
1506651048370,416
1506651048378,420
1506651048386,422
1506651048394,426
1506651048402,430
1506651048411,432
1506651048419,437
1506651048427,440
1506651048435,443
1506651048439,446
1506651048447,448
1506651048456,451
1506651048464,452
1506651048472,455
1506651048480,457
1506651048488,456
1506651048497,459
1506651048505,457
1506651048513,456
1506651048521,457
1506651048530,454
1506651048538,454
1506651048547,452
1506651048554,453
1506651048562,456
1506651048570,462
1506651048579,477
1506651048587,495
1506651048595,524
1506651048599,562
1506651048607,603
1506651048615,650
1506651048623,696
1506651048633,743
1506651048641,784
1506651048648,818
1506651048656,846
1506651048665,862
1506651048673,869
1506651048682,866
1506651048690,851
1506651048698,833
1506651048706,805
1506651048714,771
1506651048723,735
1506651048731,695
1506651048739,655
1506651048747,615
1506651048754,577
1506651048759,540
1506651048767,506
1506651048775,477
1506651048783,448
1506651048792,425
1506651048800,407
1506651048808,390
1506651048816,380
1506651048824,371
1506651048833,368
1506651048841,369
1506651048849,374
1506651048857,383
1506651048865,394
1506651048874,409
1506651048881,426
1506651048890,441
1506651048898,461
1506651048906,475
1506651048914,489
1506651048918,502
1506651048926,511
1506651048935,519
1506651048944,523
1506651048951,525
1506651048959,525
1506651048967,520
1506651048975,516
1506651048985,507
1506651048993,499
1506651049001,491
1506651049009,480
1506651049017,471
1506651049025,461
1506651049033,451
1506651049041,444
1506651049049,436
1506651049058,430
1506651049066,423
1506651049074,419
1506651049078,417
1506651049086,414
1506651049094,414
1506651049103,413
1506651049111,415
1506651049119,416
1506651049127,417
1506651049136,421
1506651049144,423
1506651049153,426
1506651049160,430
1506651049169,432
1506651049177,436
1506651049185,438
1506651049193,441
1506651049201,445
1506651049209,445
1506651049217,449
1506651049226,451
1506651049235,454
1506651049238,456
1506651049246,458
1506651049255,460
1506651049263,460
1506651049271,460
1506651049279,461
1506651049288,458
1506651049296,458
1506651049304,457
1506651049312,457
1506651049320,462
1506651049328,471
1506651049337,485
1506651049345,503
1506651049353,529
1506651049361,562
1506651049369,602
1506651049377,645
1506651049386,688
1506651049393,730
1506651049398,770
1506651049406,803
1506651049414,830
1506651049422,845
1506651049430,849
1506651049439,847
1506651049447,832
1506651049456,811
1506651049464,783
1506651049472,748
1506651049480,710
1506651049488,669
1506651049496,629
1506651049504,589
1506651049513,551
1506651049521,518
1506651049529,483
1506651049537,454
1506651049545,427
1506651049553,403
1506651049557,384
1506651049566,369
1506651049574,361
1506651049582,355
1506651049590,355
1506651049598,361
1506651049607,368
1506651049615,383
1506651049623,397
1506651049631,413
1506651049640,432
1506651049648,450
1506651049656,469
1506651049664,486
1506651049672,501
1506651049681,514
1506651049688,523
1506651049697,532
1506651049705,536
1506651049713,538
1506651049717,540
1506651049725,533
1506651049734,525
1506651049742,516
1506651049750,507
1506651049758,496
1506651049766,482
1506651049774,472
1506651049783,459
1506651049791,449
1506651049799,443
1506651049807,434
1506651049815,428
1506651049823,422
1506651049833,416
1506651049840,414
1506651049848,411
1506651049858,411
1506651049865,413
1506651049872,414
1506651049877,418
1506651049885,418
1506651049893,424
1506651049901,428
1506651049909,429
1506651049918,434
1506651049926,438
1506651049935,441
1506651049943,444
1506651049950,447
1506651049959,451
1506651049967,452
1506651049975,457
1506651049983,458
1506651049991,459
1506651049999,461
1506651050008,462
1506651050016,463
1506651050024,463
1506651050033,462
1506651050037,464
1506651050045,461
1506651050053,463
1506651050061,463
1506651050069,466
1506651050077,478
1506651050085,490
1506651050094,513
1506651050102,543
1506651050110,579
1506651050118,623
1506651050126,668
1506651050136,714
1506651050144,758
1506651050151,795
1506651050159,826
1506651050167,847
1506651050175,860
1506651050184,864
1506651050192,857
1506651050196,843
1506651050204,819
1506651050213,791
1506651050221,757
1506651050229,720
1506651050237,684
1506651050246,645
1506651050254,608
1506651050263,571
1506651050271,536
1506651050279,506
1506651050287,477
1506651050295,454
1506651050303,433
1506651050312,415
1506651050320,403
1506651050328,392
1506651050336,387
1506651050344,384
1506651050352,385
1506651050357,391
1506651050365,398
1506651050373,411
1506651050381,424
1506651050389,437
1506651050397,453
1506651050405,467
1506651050414,483
1506651050422,495
1506651050430,504
1506651050438,514
1506651050446,519
1506651050454,522
1506651050463,523
1506651050471,521
1506651050479,517
1506651050487,511
1506651050495,504
1506651050504,495
1506651050512,485
1506651050520,478
1506651050524,467
1506651050532,459
1506651050541,451
1506651050549,442
1506651050557,436
1506651050565,429
1506651050574,425
1506651050582,422
1506651050590,418
1506651050598,418
1506651050606,416
1506651050614,417
1506651050623,419
1506651050631,421
1506651050639,426
1506651050647,429
1506651050655,432
1506651050663,435
1506651050671,439
1506651050679,444
1506651050685,449
1506651050693,453
1506651050700,457
1506651050709,456
1506651050717,459
1506651050725,459
1506651050733,459
1506651050742,461
1506651050749,461
1506651050757,462
1506651050765,462
1506651050774,462
1506651050782,462
1506651050790,461
1506651050798,461
1506651050806,459
1506651050814,459
1506651050824,461
1506651050832,466
1506651050839,477
1506651050844,494
1506651050853,521
1506651050860,553
1506651050869,592
1506651050877,636
1506651050885,682
1506651050893,729
1506651050901,773
1506651050909,810
1506651050918,841
1506651050925,861
1506651050934,871
1506651050942,875
1506651050950,867
1506651050958,852
1506651050966,828
1506651050974,800
1506651050982,767
1506651050991,730
1506651050999,695
1506651051003,657
1506651051012,621
1506651051019,590
1506651051028,557
1506651051037,531
1506651051045,504
1506651051053,481
1506651051061,462
1506651051069,445
1506651051077,430
1506651051085,417
1506651051093,409
1506651051101,405
1506651051109,401
1506651051118,404
1506651051126,407
1506651051135,412
1506651051143,422
1506651051151,431
1506651051159,444
1506651051163,455
1506651051171,466
1506651051179,476
1506651051187,485
1506651051195,495
1506651051204,498
1506651051212,502
1506651051221,504
1506651051229,503
1506651051238,501
1506651051245,497
1506651051254,492
1506651051262,486
1506651051270,478
1506651051278,471
1506651051286,463
1506651051294,454
1506651051302,448
1506651051310,439
1506651051318,434
1506651051323,427
1506651051331,422
1506651051339,419
1506651051348,416
1506651051356,415
1506651051364,414
1506651051373,415
1506651051381,414
1506651051389,417
1506651051397,420
1506651051406,421
1506651051414,424
1506651051422,428
1506651051430,430
1506651051438,435
1506651051447,436
1506651051455,441
1506651051463,445
1506651051471,448
1506651051478,450
1506651051483,451
1506651051491,453
1506651051499,455
1506651051507,455
1506651051516,457
1506651051524,457
1506651051532,457
1506651051540,458
1506651051548,455
1506651051557,455
1506651051566,453
1506651051573,451
1506651051582,449
1506651051589,448
1506651051598,451
1506651051606,454
1506651051614,464
1506651051622,482
1506651051630,504
1506651051638,537
1506651051643,576
1506651051651,619
1506651051659,669
1506651051667,718
1506651051675,763
1506651051683,799
1506651051692,831
1506651051700,859
1506651051708,869
1506651051716,872
1506651051724,865
1506651051733,849
1506651051741,829
1506651051749,800
1506651051758,769
1506651051766,733
1506651051774,696
1506651051782,660
1506651051790,622
1506651051798,590
1506651051802,557
1506651051810,528
1506651051819,501
1506651051827,476
1506651051835,455
1506651051844,440
1506651051852,423
1506651051860,412
1506651051868,402
1506651051876,394
1506651051884,393
1506651051893,391
1506651051901,394
1506651051909,397
1506651051917,406
1506651051925,416
1506651051933,427
1506651051942,440
1506651051950,452
1506651051958,466
1506651051962,475
1506651051970,484
1506651051978,494
1506651051986,496
1506651051994,500
1506651052002,501
1506651052011,499
1506651052019,497
1506651052027,491
1506651052036,486
1506651052044,477
1506651052053,468
1506651052060,461
1506651052068,450
1506651052077,444
1506651052085,436
1506651052093,428
1506651052101,423
1506651052109,416
1506651052117,414
1506651052121,410
1506651052130,408
1506651052138,409
1506651052146,408
1506651052154,410
1506651052162,411
1506651052170,413
1506651052178,417
1506651052187,418
1506651052195,421
1506651052203,424
1506651052211,427
1506651052220,431
1506651052228,433
1506651052236,438
1506651052245,440
1506651052253,442
1506651052261,446
1506651052269,447
1506651052277,451
1506651052285,453
1506651052289,452
1506651052297,456
1506651052306,456
1506651052314,458
1506651052322,458
1506651052330,458
1506651052339,458
1506651052347,457
1506651052355,456
1506651052363,454
1506651052371,451
1506651052379,452
1506651052387,449
1506651052396,449
1506651052404,447
1506651052412,444
1506651052420,444
1506651052429,442
1506651052437,444
1506651052445,445
1506651052449,452
1506651052458,468
1506651052466,486
1506651052474,517
1506651052482,554
1506651052490,596
1506651052498,646
1506651052506,695
1506651052515,745
1506651052523,791
1506651052531,829
1506651052539,862
1506651052548,881
1506651052555,893
1506651052563,893
1506651052572,883
1506651052580,867
1506651052588,840
1506651052596,809
1506651052604,774
1506651052608,734
1506651052616,696
1506651052624,654
1506651052633,615
1506651052641,577
1506651052650,542
1506651052658,512
1506651052666,480
1506651052675,455
1506651052683,435
1506651052691,416
1506651052699,404
1506651052707,392
1506651052716,387
1506651052724,385
1506651052732,387
1506651052740,394
1506651052748,400
1506651052756,412
1506651052764,425
1506651052768,438
1506651052776,454
1506651052784,466
1506651052793,481
1506651052801,493
1506651052809,502
1506651052817,511
1506651052825,515
1506651052834,519
1506651052842,519
1506651052850,516
1506651052858,514
1506651052867,506
1506651052874,500
1506651052882,492
1506651052892,480
1506651052900,474
1506651052908,462
1506651052916,453
1506651052924,446
1506651052929,442
1506651052937,435
1506651052945,426
1506651052952,425
1506651052961,417
1506651052970,413
1506651052978,415
1506651052986,410
1506651052994,411
1506651053002,415
1506651053010,416
1506651053018,416
1506651053027,414
1506651053035,416
1506651053043,418
1506651053051,420
1506651053059,425
1506651053067,426
1506651053076,431
1506651053083,435
1506651053089,438
1506651053097,443
1506651053105,446
1506651053113,450
1506651053121,453
1506651053129,456
1506651053137,459
1506651053146,459
1506651053154,462
1506651053162,463
1506651053170,462
1506651053179,464
1506651053187,463
1506651053195,461
1506651053203,461
1506651053211,458
1506651053219,457
1506651053227,452
1506651053235,450
1506651053244,448
1506651053248,444
1506651053256,444
1506651053264,441
1506651053273,442
1506651053280,446
1506651053289,454
1506651053297,472
1506651053305,494
1506651053313,525
1506651053321,563
1506651053330,605
1506651053338,654
1506651053346,700
1506651053354,748
1506651053362,791
1506651053370,826
1506651053378,858
1506651053387,875
1506651053395,883
1506651053403,883
1506651053407,872
1506651053417,852
1506651053424,823
1506651053433,788
1506651053441,749
1506651053449,705
1506651053457,662
1506651053465,616
1506651053473,575
1506651053481,536
1506651053489,498
1506651053497,467
1506651053505,438
1506651053514,416
1506651053522,396
1506651053530,379
1506651053539,370
1506651053547,363
1506651053555,362
1506651053563,368
1506651053567,372
1506651053576,386
1506651053584,399
1506651053592,416
1506651053600,435
1506651053608,452
1506651053616,472
1506651053625,487
1506651053633,503
1506651053641,516
1506651053649,526
1506651053657,535
1506651053666,538
1506651053674,539
1506651053682,538
1506651053690,530
1506651053698,525
1506651053707,514
1506651053715,504
1506651053723,492
1506651053727,477
1506651053735,467
1506651053745,453
1506651053752,444
1506651053760,435
1506651053768,425
1506651053776,421
1506651053785,414
1506651053793,409
1506651053801,407
1506651053809,404
1506651053817,406
1506651053825,404
1506651053834,406
1506651053842,409
1506651053850,410
1506651053858,416
1506651053867,417
1506651053875,422
1506651053883,428
1506651053887,430
1506651053895,438
1506651053903,441
1506651053912,445
1506651053920,451
1506651053929,453
1506651053937,458
1506651053945,459
1506651053953,462
1506651053961,466
1506651053969,466
1506651053977,468
1506651053985,466
1506651053994,465
1506651054002,464
1506651054010,461
1506651054018,460
1506651054026,457
1506651054034,455
1506651054042,454
1506651054047,453
1506651054054,458
1506651054062,455
1506651054071,461
1506651054079,475
1506651054087,493
1506651054095,524
1506651054103,560
1506651054112,604
1506651054121,654
1506651054128,704
1506651054136,755
1506651054146,802
1506651054154,845
1506651054161,881
1506651054169,904
1506651054178,912
1506651054186,912
1506651054194,908
1506651054202,886
1506651054206,855
1506651054214,818
1506651054222,774
1506651054231,728
1506651054239,681
1506651054247,632
1506651054255,588
1506651054263,543
1506651054271,503
1506651054280,470
1506651054288,438
1506651054296,415
1506651054305,393
1506651054314,376
1506651054321,365
1506651054329,358
1506651054337,357
1506651054346,359
1506651054354,366
1506651054361,378
1506651054369,389
1506651054374,408
1506651054382,424
1506651054390,443
1506651054398,462
1506651054406,480
1506651054415,497
1506651054423,510
1506651054431,521
1506651054440,530
1506651054448,534
1506651054456,537
1506651054464,534
1506651054472,529
1506651054480,524
1506651054489,513
1506651054497,504
1506651054505,492
1506651054513,479
1506651054521,467
1506651054529,455
1506651054534,446
1506651054542,435
1506651054550,429
1506651054558,423
1506651054566,415
1506651054574,412
1506651054583,408
1506651054591,406
1506651054599,406
1506651054608,405
1506651054616,408
1506651054624,409
1506651054632,412
1506651054640,416
1506651054649,417
1506651054657,422
1506651054665,424
1506651054673,428
1506651054681,433
1506651054689,434
1506651054694,438
1506651054702,440
1506651054710,442
1506651054718,445
1506651054727,445
1506651054735,449
1506651054743,448
1506651054751,449
1506651054760,450
1506651054768,449
1506651054776,451
1506651054784,451
1506651054793,450
1506651054800,452
1506651054808,449
1506651054817,449
1506651054826,448
1506651054834,447
1506651054842,447
1506651054849,444
1506651054853,446
1506651054862,450
1506651054870,452
1506651054878,455
1506651054887,465
1506651054895,481
1506651054903,507
1506651054911,542
1506651054919,590
1506651054927,643
1506651054936,703
1506651054944,765
1506651054952,826
1506651054960,883
1506651054968,912
1506651054977,912
1506651054985,912
1506651054993,912
1506651055001,912
1506651055009,912
1506651055013,912
1506651055022,894
1506651055030,847
1506651055038,799
1506651055046,747
1506651055054,696
1506651055062,645
1506651055070,597
1506651055078,555
1506651055086,514
1506651055094,481
1506651055103,451
1506651055111,425
1506651055119,407
1506651055127,390
1506651055135,379
1506651055144,371
1506651055153,369
1506651055160,372
1506651055168,374
1506651055173,384
1506651055181,395
1506651055189,407
1506651055197,424
1506651055205,439
1506651055214,456
1506651055222,472
1506651055230,485
1506651055238,499
1506651055246,508
1506651055255,517
1506651055263,521
1506651055271,522
1506651055279,524
1506651055287,519
1506651055296,515
1506651055304,508
1506651055312,498
1506651055320,490
1506651055328,477
1506651055333,467
1506651055341,456
1506651055349,446
1506651055357,439
1506651055365,428
1506651055373,423
1506651055382,416
1506651055390,410
1506651055398,408
1506651055406,404
1506651055414,403
1506651055423,403
1506651055431,404
1506651055439,407
1506651055448,408
1506651055456,412
1506651055464,415
1506651055472,418
1506651055480,423
1506651055488,424
1506651055493,428
1506651055500,432
1506651055509,434
1506651055517,439
1506651055525,439
1506651055533,443
1506651055542,445
1506651055550,446
1506651055557,450
1506651055566,449
1506651055574,451
1506651055582,451
1506651055590,451
1506651055598,453
1506651055607,451
1506651055615,451
1506651055623,450
1506651055632,447
1506651055640,448
1506651055648,443
1506651055653,442
1506651055660,441
1506651055669,438
1506651055676,440
1506651055685,442
1506651055693,450
1506651055702,465
1506651055710,488
1506651055718,524
1506651055726,566
1506651055734,621
1506651055742,683
1506651055751,744
1506651055758,809
1506651055766,863
1506651055774,906
1506651055783,912
1506651055791,912
1506651055800,912
1506651055808,912
1506651055812,912
1506651055820,901
1506651055829,862
1506651055837,820
1506651055845,770
1506651055853,721
1506651055861,673
1506651055869,624
1506651055877,582
1506651055885,539
1506651055894,503
1506651055902,471
1506651055910,442
1506651055918,422
1506651055926,402
1506651055934,387
1506651055943,377
1506651055951,369
1506651055959,368
1506651055967,367
1506651055971,372
1506651055979,380
1506651055988,388
1506651055996,402
1506651056005,414
1506651056013,431
1506651056021,448
1506651056029,462
1506651056037,480
1506651056046,492
1506651056054,505
1506651056062,516
1506651056070,521
1506651056078,527
1506651056086,527
1506651056095,525
1506651056103,522
1506651056111,514
1506651056119,508
1506651056127,496
1506651056131,487
1506651056139,475
1506651056148,461
1506651056156,453
1506651056164,440
1506651056172,431
1506651056180,424
1506651056188,414
1506651056197,411
1506651056205,405
1506651056213,403
1506651056221,402
1506651056229,400
1506651056238,403
1506651056247,402
1506651056255,404
1506651056262,408
1506651056270,409
1506651056278,416
1506651056286,417
1506651056294,422
1506651056299,426
1506651056307,427
1506651056316,433
1506651056324,434
1506651056332,438
1506651056340,443
1506651056348,443
1506651056356,448
1506651056364,449
1506651056373,451
1506651056381,454
1506651056389,453
1506651056397,456
1506651056405,454
1506651056414,454
1506651056422,454
1506651056430,450
1506651056438,451
1506651056447,447
1506651056455,444
1506651056460,443
1506651056468,438
1506651056476,438
1506651056484,433
1506651056492,431
1506651056500,430
1506651056508,427
1506651056516,432
1506651056525,437
1506651056533,453
1506651056541,479
1506651056549,512
1506651056557,562
1506651056566,619
1506651056574,678
1506651056582,741
1506651056590,797
1506651056598,849
1506651056606,888
1506651056615,912
1506651056619,912
1506651056627,912
1506651056636,912
1506651056644,895
1506651056652,861
1506651056660,825
1506651056668,779
1506651056676,734
1506651056684,685
1506651056692,636
1506651056701,592
1506651056709,547
1506651056717,512
1506651056725,476
1506651056733,447
1506651056742,424
1506651056750,401
1506651056758,387
1506651056766,373
1506651056774,365
1506651056779,361
1506651056787,361
1506651056795,367
1506651056804,373
1506651056812,385
1506651056820,400
1506651056828,414
1506651056836,435
1506651056844,451
1506651056853,470
1506651056860,488
1506651056868,501
1506651056876,515
1506651056885,524
1506651056893,531
1506651056901,536
1506651056909,534
1506651056918,534
1506651056926,528
1506651056934,519
1506651056938,512
1506651056947,499
1506651056955,490
1506651056963,476
1506651056971,463
1506651056980,453
1506651056987,440
1506651056996,432
1506651057004,422
1506651057013,414
1506651057020,410
1506651057028,402
1506651057036,402
1506651057045,399
1506651057053,397
1506651057061,400
1506651057070,398
1506651057078,402
1506651057086,404
1506651057094,408
1506651057098,414
1506651057106,416
1506651057115,422
1506651057123,425
1506651057131,429
1506651057139,436
1506651057147,439
1506651057155,445
1506651057164,449
1506651057173,452
1506651057181,457
1506651057189,459
1506651057197,464
1506651057205,465
1506651057213,465
1506651057221,466
1506651057229,463
1506651057237,463
1506651057246,460
1506651057254,457
1506651057258,456
1506651057265,451
1506651057274,448
1506651057282,445
1506651057290,441
1506651057298,440
1506651057306,439
1506651057315,446
1506651057323,457
1506651057331,477
1506651057339,510
1506651057350,548
1506651057357,599
1506651057364,652
1506651057373,706
1506651057380,759
1506651057388,802
1506651057397,840
1506651057405,865
1506651057413,876
1506651057417,879
1506651057425,865
1506651057433,845
1506651057442,813
1506651057450,775
1506651057458,735
1506651057466,689
1506651057474,644
1506651057483,598
1506651057490,554
1506651057499,515
1506651057507,476
1506651057515,446
1506651057524,418
1506651057532,394
1506651057540,378
1506651057549,362
1506651057557,353
1506651057564,347
1506651057572,345
1506651057577,350
1506651057585,355
1506651057593,369
1506651057602,383
1506651057610,401
1506651057619,421
1506651057627,440
1506651057635,462
1506651057643,481
1506651057651,498
1506651057659,517
1506651057667,527
1506651057675,539
1506651057683,544
1506651057693,546
1506651057700,546
1506651057709,540
1506651057716,533
1506651057724,523
1506651057732,509
1506651057736,499
1506651057745,482
1506651057753,469
1506651057761,456
1506651057769,441
1506651057778,432
1506651057786,419
1506651057794,411
1506651057802,404
1506651057810,398
1506651057819,396
1506651057827,392
1506651057835,393
1506651057844,393
1506651057852,394
1506651057860,399
1506651057868,401
1506651057876,405
1506651057886,409
1506651057893,413
1506651057896,420
1506651057904,423
1506651057913,429
1506651057921,433
1506651057929,436
1506651057938,442
1506651057946,443
1506651057955,448
1506651057962,451
1506651057970,451
1506651057978,456
1506651057986,456
1506651057995,457
1506651058003,458
1506651058012,457
1506651058020,459
1506651058028,456
1506651058036,457
1506651058044,456
1506651058052,452
1506651058056,453
1506651058064,450
1506651058073,452
1506651058081,456
1506651058089,464
1506651058097,484
1506651058105,508
1506651058114,548
1506651058122,595
1506651058130,647
1506651058138,706
1506651058146,759
1506651058155,811
1506651058163,853
1506651058171,883
1506651058179,905
1506651058187,910
1506651058195,905
1506651058203,889
1506651058212,862
1506651058219,831
1506651058224,789
1506651058232,746
1506651058240,702
1506651058249,654
1506651058257,612
1506651058265,570
1506651058274,533
1506651058282,501
1506651058290,470
1506651058298,448
1506651058307,426
1506651058315,410
1506651058323,397
1506651058331,385
1506651058339,382
1506651058347,378
1506651058355,380
1506651058363,386
1506651058372,394
1506651058380,407
1506651058384,420
1506651058393,437
1506651058400,455
1506651058408,471
1506651058417,491
1506651058425,504
1506651058433,519
1506651058441,531
1506651058450,537
1506651058458,545
1506651058466,546
1506651058474,545
1506651058482,541
1506651058490,533
1506651058498,526
1506651058507,513
1506651058515,503
1506651058523,492
1506651058531,478
1506651058539,468
1506651058544,454
1506651058552,446
1506651058559,438
1506651058568,428
1506651058576,424
1506651058584,418
1506651058593,415
1506651058601,413
1506651058609,411
1506651058617,413
1506651058625,413
1506651058633,416
1506651058642,419
1506651058650,420
1506651058658,426
1506651058667,428
1506651058675,433
1506651058683,438
1506651058691,441
1506651058699,448
1506651058703,450
1506651058712,455
1506651058720,459
1506651058728,461
1506651058736,465
1506651058744,465
1506651058753,466
1506651058761,469
1506651058769,466
1506651058777,469
1506651058785,466
1506651058794,466
1506651058802,465
1506651058810,462
1506651058818,462
1506651058826,458
1506651058835,457
1506651058843,458
1506651058851,456
1506651058859,463
1506651058863,471
1506651058871,490
1506651058879,520
1506651058888,556
1506651058896,607
1506651058904,660
1506651058913,716
1506651058921,774
1506651058929,823
1506651058937,870
1506651058945,900
1506651058954,912
1506651058961,912
1506651058969,912
1506651058978,912
1506651058986,885
1506651058994,853
1506651059002,816
1506651059010,773
1506651059018,730
1506651059023,685
1506651059031,642
1506651059039,603
1506651059048,564
1506651059056,533
1506651059064,502
1506651059073,476
1506651059080,456
1506651059089,437
1506651059097,425
1506651059105,412
1506651059113,404
1506651059121,401
1506651059129,397
1506651059138,402
1506651059146,406
1506651059154,413
1506651059162,426
1506651059170,436
1506651059178,452
1506651059183,465
1506651059191,479
1506651059199,493
1506651059207,503
1506651059215,515
1506651059223,522
1506651059231,528
1506651059240,534
1506651059248,532
1506651059256,531
1506651059265,524
1506651059273,517
1506651059281,511
1506651059289,498
1506651059298,489
1506651059306,477
1506651059314,465
1506651059322,457
1506651059330,446
1506651059338,440
1506651059342,433
1506651059351,425
1506651059360,421
1506651059367,415
1506651059375,415
1506651059384,412
1506651059392,411
1506651059400,412
1506651059408,412
1506651059416,415
1506651059424,417
1506651059432,420
1506651059440,424
1506651059449,427
1506651059457,433
1506651059465,435
1506651059473,439
1506651059482,444
1506651059490,446
1506651059498,452
1506651059502,453
1506651059511,455
1506651059519,460
1506651059527,460
1506651059535,463
1506651059543,462
1506651059552,463
1506651059560,464
1506651059568,461
1506651059576,462
1506651059584,460
1506651059593,458
1506651059601,458
1506651059609,453
1506651059617,454
1506651059625,451
1506651059633,448
1506651059642,450
1506651059650,452
1506651059658,463
1506651059661,479
1506651059670,503
1506651059678,540
1506651059688,584
1506651059695,639
1506651059704,694
1506651059712,749
1506651059719,802
1506651059728,845
1506651059736,879
1506651059744,901
1506651059753,910
1506651059760,909
1506651059768,893
1506651059776,871
1506651059784,839
1506651059793,802
1506651059801,763
1506651059809,718
1506651059817,678
1506651059821,635
1506651059829,594
1506651059838,560
1506651059846,525
1506651059854,499
1506651059862,473
1506651059872,451
1506651059879,435
1506651059888,419
1506651059897,410
1506651059904,400
1506651059912,395
1506651059921,395
1506651059928,394
1506651059937,401
1506651059945,409
1506651059953,418
1506651059960,433
1506651059969,444
1506651059977,460
1506651059981,472
1506651059989,484
1506651059997,497
1506651060005,504
1506651060014,513
1506651060022,518
1506651060030,519
1506651060040,521
1506651060047,516
1506651060056,513
1506651060063,506
1506651060071,498
1506651060079,490
1506651060087,478
1506651060095,470
1506651060103,459
1506651060112,449
1506651060120,442
1506651060128,432
1506651060136,426
1506651060140,421
1506651060149,415
1506651060157,413
1506651060166,409
1506651060174,409
1506651060182,408
1506651060190,408
1506651060198,412
1506651060207,413
1506651060215,417
1506651060223,420
1506651060231,422
1506651060239,428
1506651060248,429
1506651060256,434
1506651060264,437
1506651060272,439
1506651060280,444
1506651060288,443
1506651060296,446
1506651060305,449
1506651060309,449
1506651060317,453
1506651060325,452
1506651060333,455
1506651060342,457
1506651060350,457
1506651060358,459
1506651060366,457
1506651060374,457
1506651060383,456
1506651060391,452
1506651060399,454
1506651060407,449
1506651060415,448
1506651060424,446
1506651060433,442
1506651060440,441
1506651060448,437
1506651060456,436
1506651060464,436
1506651060468,439
1506651060477,451
1506651060485,466
1506651060493,494
1506651060501,531
1506651060509,576
1506651060517,632
1506651060526,686
1506651060534,741
1506651060542,793
1506651060551,835
1506651060559,870
1506651060567,889
1506651060575,898
1506651060583,894
1506651060591,877
1506651060600,855
1506651060608,820
1506651060616,781
1506651060625,739
1506651060629,692
1506651060637,649
1506651060645,604
1506651060653,564
1506651060661,527
1506651060670,493
1506651060678,467
1506651060686,441
1506651060694,422
1506651060702,407
1506651060710,392
1506651060718,385
1506651060727,377
1506651060735,376
1506651060743,379
1506651060751,384
1506651060759,394
1506651060768,404
1506651060777,419
1506651060784,434
1506651060788,450
1506651060797,469
1506651060805,483
1506651060813,499
1506651060821,513
1506651060829,521
1506651060837,531
1506651060846,535
1506651060854,536
1506651060862,535
1506651060870,528
1506651060878,524
1506651060887,512
1506651060895,501
1506651060903,490
1506651060911,476
1506651060919,466
1506651060927,453
1506651060935,443
1506651060944,434
1506651060948,424
1506651060956,418
1506651060965,411
1506651060972,408
1506651060981,406
1506651060989,403
1506651060997,405
1506651061005,404
1506651061013,406
1506651061021,409
1506651061029,411
1506651061038,416
1506651061047,419
1506651061055,425
1506651061063,430
1506651061071,432
1506651061079,439
1506651061087,441
1506651061095,446
1506651061104,451
1506651061108,452
1506651061116,457
1506651061124,458
1506651061133,459
1506651061141,461
1506651061149,460
1506651061157,462
1506651061165,460
1506651061173,459
1506651061181,458
1506651061189,455
1506651061198,454
1506651061206,450
1506651061214,447
1506651061222,446
1506651061230,442
1506651061238,442
1506651061247,442
1506651061255,448
1506651061263,460
1506651061267,478
1506651061275,509
1506651061284,546
1506651061293,592
1506651061300,645
1506651061309,695
1506651061317,746
1506651061325,789
1506651061333,824
1506651061341,852
1506651061349,865
1506651061357,868
1506651061366,858
1506651061374,838
1506651061382,812
1506651061390,776
1506651061398,739
1506651061406,696
1506651061414,653
1506651061422,613
1506651061428,570
1506651061436,534
1506651061444,499
1506651061453,469
1506651061460,444
1506651061468,420
1506651061477,404
1506651061484,388
1506651061492,378
1506651061500,372
1506651061509,368
1506651061517,371
1506651061526,376
1506651061534,384
1506651061542,398
1506651061550,412
1506651061558,430
1506651061567,446
1506651061575,464
1506651061583,483
1506651061587,495
1506651061595,512
1506651061604,520
1506651061612,526
1506651061620,532
1506651061628,531
1506651061636,531
1506651061644,525
1506651061653,518
1506651061661,510
1506651061669,498
1506651061677,488
1506651061685,474
1506651061694,462
1506651061702,454
1506651061710,441
1506651061718,435
1506651061726,425
1506651061734,417
1506651061742,414
1506651061747,407
1506651061755,406
1506651061763,403
1506651061771,403
1506651061779,406
1506651061787,406
1506651061795,411
1506651061804,413
1506651061812,415
1506651061820,421
1506651061828,421
1506651061836,425
1506651061844,429
1506651061853,432
1506651061861,438
1506651061870,440
1506651061877,445
1506651061886,447
1506651061894,450
1506651061902,455
1506651061906,455
1506651061914,459
1506651061922,460
1506651061930,459
1506651061939,462
1506651061947,459
1506651061955,461
1506651061964,460
1506651061972,458
1506651061980,458
1506651061988,455
1506651061996,454
1506651062004,452
1506651062013,448
1506651062021,448
1506651062029,443
1506651062038,443
1506651062045,443
1506651062054,447
1506651062062,460
1506651062067,479
1506651062075,511
1506651062082,552
1506651062091,601
1506651062099,658
1506651062107,714
1506651062115,771
1506651062123,821
1506651062131,859
1506651062140,891
1506651062148,906
1506651062157,911
1506651062165,903
1506651062172,883
1506651062181,858
1506651062189,821
1506651062197,782
1506651062205,738
1506651062213,693
1506651062221,651
1506651062230,606
1506651062235,567
1506651062243,532
1506651062251,499
1506651062259,475
1506651062267,450
1506651062276,434
1506651062284,419
1506651062292,407
1506651062300,401
1506651062308,393
1506651062316,394
1506651062324,394
1506651062333,398
1506651062340,407
1506651062349,415
1506651062357,429
1506651062365,441
1506651062373,455
1506651062381,472
1506651062389,483
1506651062394,498
1506651062402,508
1506651062410,516
1506651062418,524
1506651062427,525
1506651062435,527
1506651062443,526
1506651062451,520
1506651062459,515
1506651062468,505
1506651062476,496
1506651062484,485
1506651062492,474
1506651062500,465
1506651062508,452
1506651062517,445
1506651062525,436
1506651062533,427
1506651062541,422
1506651062549,416
1506651062554,412
1506651062562,409
1506651062570,407
1506651062579,408
1506651062588,407
1506651062595,410
1506651062604,412
1506651062611,413
1506651062619,419
1506651062627,421
1506651062636,425
1506651062644,429
1506651062652,432
1506651062660,437
1506651062668,438
1506651062676,443
1506651062684,447
1506651062693,449
1506651062701,453
1506651062709,454
1506651062713,457
1506651062721,460
1506651062729,458
1506651062738,461
1506651062746,460
1506651062754,460
1506651062762,461
1506651062770,458
1506651062779,459
1506651062787,456
1506651062796,456
1506651062803,454
1506651062811,450
1506651062820,450
1506651062828,446
1506651062836,444
1506651062844,441
1506651062852,437
1506651062860,437
1506651062868,434
1506651062872,435
1506651062881,439
1506651062889,447
1506651062898,466
1506651062905,492
1506651062914,531
1506651062921,580
1506651062930,633
1506651062938,694
1506651062947,749
1506651062956,801
1506651062964,847
1506651062972,879
1506651062980,904
1506651062988,910
1506651062996,907
1506651063004,894
1506651063012,867
1506651063020,837
1506651063028,798
1506651063033,757
1506651063041,714
1506651063049,668
1506651063058,628
1506651063066,586
1506651063074,551
1506651063082,520
1506651063090,490
1506651063098,469
1506651063106,448
1506651063115,432
1506651063123,419
1506651063131,407
1506651063139,399
1506651063148,392
1506651063156,391
1506651063164,393
1506651063173,395
1506651063180,406
1506651063188,413
1506651063193,426
1506651063201,440
1506651063209,453
1506651063217,469
1506651063225,480
1506651063234,493
1506651063242,504
1506651063250,510
1506651063258,518
1506651063266,519
1506651063275,519
1506651063283,518
1506651063291,511
1506651063299,508
1506651063308,499
1506651063315,491
1506651063323,482
1506651063333,470
1506651063340,463
1506651063348,450
1506651063352,441
1506651063360,433
1506651063369,423
1506651063377,419
1506651063385,413
1506651063393,409
1506651063401,408
1506651063409,405
1506651063417,407
1506651063426,406
1506651063434,409
1506651063442,413
1506651063450,414
1506651063459,421
1506651063468,422
1506651063475,427
1506651063483,432
1506651063491,435
1506651063500,440
1506651063507,442
1506651063512,446
1506651063520,449
1506651063528,450
1506651063536,455
1506651063544,456
1506651063553,460
1506651063561,462
1506651063569,460
1506651063577,462
1506651063585,462
1506651063594,461
1506651063601,461
1506651063609,459
1506651063618,460
1506651063627,457
1506651063635,456
1506651063643,456
1506651063652,452
1506651063660,453
1506651063668,449
1506651063672,446
1506651063680,445
1506651063688,441
1506651063696,439
1506651063704,435
1506651063713,433
1506651063721,434
1506651063729,433
1506651063737,439
1506651063745,448
1506651063754,465
1506651063762,494
1506651063770,529
1506651063778,578
1506651063786,630
1506651063794,686
1506651063802,742
1506651063810,790
1506651063819,834
1506651063827,863
1506651063831,883
1506651063839,892
1506651063847,887
1506651063855,874
1506651063864,849
1506651063873,816
1506651063881,782
1506651063889,738
1506651063897,698
1506651063905,654
1506651063914,612
1506651063922,575
1506651063930,538
1506651063938,509
1506651063946,481
1506651063954,459
1506651063962,443
1506651063971,424
1506651063979,413
1506651063987,402
1506651063995,395
1506651063999,392
1506651064007,390
1506651064015,394
1506651064023,399
1506651064032,408
1506651064040,419
1506651064048,431
1506651064056,447
1506651064065,460
1506651064073,473
1506651064081,488
1506651064089,499
1506651064097,509
1506651064105,515
1506651064114,518
1506651064122,522
1506651064131,518
1506651064139,516
1506651064147,510
1506651064155,502
1506651064159,495
1506651064167,482
1506651064176,473
1506651064183,462
1506651064192,451
1506651064200,443
1506651064208,432
1506651064216,425
1506651064225,417
1506651064232,411
1506651064241,409
1506651064249,403
1506651064257,403
1506651064266,402
1506651064274,403
1506651064282,407
1506651064290,407
1506651064298,411
1506651064306,415
1506651064314,418
1506651064318,424
1506651064327,426
1506651064335,432
1506651064343,435
1506651064351,438
1506651064360,445
1506651064368,446
1506651064376,450
1506651064384,452
1506651064392,454
1506651064400,456
1506651064408,455
1506651064417,458
1506651064425,458
1506651064433,458
1506651064441,460
1506651064449,457
1506651064458,459
1506651064466,457
1506651064474,455
1506651064478,456
1506651064486,453
1506651064494,452
1506651064502,450
1506651064511,447
1506651064519,447
1506651064527,443
1506651064535,442
1506651064543,440
1506651064552,436
1506651064560,437
1506651064568,432
1506651064576,432
1506651064584,432
1506651064592,430
1506651064600,435
1506651064609,441
1506651064617,459
1506651064625,483
1506651064633,517
1506651064637,564
1506651064645,612
1506651064654,668
1506651064662,722
1506651064670,769
1506651064679,811
1506651064687,840
1506651064695,861
1506651064704,870
1506651064712,865
1506651064720,852
1506651064728,826
1506651064736,795
1506651064745,757
1506651064753,714
1506651064761,673
1506651064769,626
1506651064777,585
1506651064786,545
1506651064794,507
1506651064798,478
1506651064806,449
1506651064814,428
1506651064823,410
1506651064830,394
1506651064838,386
1506651064847,375
1506651064855,371
1506651064863,368
1506651064872,368
1506651064880,376
1506651064888,382
1506651064896,395
1506651064904,409
1506651064912,423
1506651064920,442
1506651064929,456
1506651064937,472
1506651064945,486
1506651064953,497
1506651064958,510
1506651064966,513
1506651064974,519
1506651064982,521
1506651064990,517
1506651064998,515
1506651065006,507
1506651065015,500
1506651065022,491
1506651065032,481
1506651065040,473
1506651065048,459
1506651065056,449
1506651065064,440
1506651065073,429
1506651065081,424
1506651065089,414
1506651065097,409
1506651065105,406
1506651065113,400
1506651065118,400
1506651065126,399
1506651065135,401
1506651065142,403
1506651065150,404
1506651065159,409
1506651065167,411
1506651065174,416
1506651065183,420
1506651065191,422
1506651065199,429
1506651065207,431
1506651065215,435
1506651065223,440
1506651065232,442
1506651065240,447
1506651065248,448
1506651065256,453
1506651065265,456
1506651065273,456
1506651065277,460
1506651065286,459
1506651065294,460
1506651065303,460
1506651065310,457
1506651065318,457
1506651065326,454
1506651065335,452
1506651065343,449
1506651065351,445
1506651065359,443
1506651065367,438
1506651065375,435
1506651065383,434
1506651065392,429
1506651065400,432
1506651065408,433
1506651065416,441
1506651065424,458
1506651065433,482
1506651065437,518
1506651065445,559
1506651065453,608
1506651065462,660
1506651065470,709
1506651065477,757
1506651065485,795
1506651065494,824
1506651065503,844
1506651065511,848
1506651065519,845
1506651065527,829
1506651065535,805
1506651065543,775
1506651065551,737
1506651065560,704
1506651065568,665
1506651065576,623
1506651065584,583
1506651065592,543
1506651065596,509
1506651065605,480
1506651065613,451
1506651065621,431
1506651065630,410
1506651065638,395
1506651065646,379
1506651065654,375
1506651065663,374
1506651065671,373
1506651065679,382
1506651065687,390
1506651065695,402
1506651065703,419
1506651065711,431
1506651065719,448
1506651065727,464
1506651065736,482
1506651065744,500
1506651065752,514
1506651065761,529
1506651065765,537
1506651065773,544
1506651065781,549
1506651065789,548
1506651065797,547
1506651065805,537
1506651065814,527
1506651065822,517
1506651065831,503
1506651065839,492
1506651065846,477
1506651065854,464
1506651065863,452
1506651065871,440
1506651065879,434
1506651065887,425
1506651065895,418
1506651065904,414
1506651065912,409
1506651065920,409
1506651065925,408
1506651065933,409
1506651065941,413
1506651065949,413
1506651065957,419
1506651065965,421
1506651065974,425
1506651065981,432
1506651065990,433
1506651065998,440
1506651066007,444
1506651066015,448
1506651066023,454
1506651066031,456
1506651066039,462
1506651066047,463
1506651066055,465
1506651066064,469
1506651066072,469
1506651066079,473
1506651066084,473
1506651066093,473
1506651066100,476
1506651066108,474
1506651066117,473
1506651066125,471
1506651066133,467
1506651066141,466
1506651066149,461
1506651066157,461
1506651066166,457
1506651066175,457
1506651066183,458
1506651066191,459
1506651066199,471
1506651066208,489
1506651066215,517
1506651066224,559
1506651066232,607
1506651066239,663
1506651066244,719
1506651066252,773
1506651066260,824
1506651066268,861
1506651066277,893
1506651066285,911
1506651066293,912
1506651066301,912
1506651066309,895
1506651066318,872
1506651066326,838
1506651066334,799
1506651066342,759
1506651066350,714
1506651066358,671
1506651066367,629
1506651066375,589
1506651066383,555
1506651066392,522
1506651066399,497
1506651066404,474
1506651066412,454
1506651066420,440
1506651066428,426
1506651066436,418
1506651066445,411
1506651066453,408
1506651066461,410
1506651066469,414
1506651066477,427
1506651066485,433
1506651066494,446
1506651066502,462
1506651066510,471
1506651066518,485
1506651066526,498
1506651066535,510
1506651066543,523
1506651066551,531
1506651066559,540
1506651066563,542
1506651066572,543
1506651066580,544
1506651066588,536
1506651066596,531
1506651066605,522
1506651066613,511
1506651066621,503
1506651066629,488
1506651066637,477
1506651066645,464
1506651066653,453
1506651066661,446
1506651066670,435
1506651066677,430
1506651066685,425
1506651066694,419
1506651066703,420
1506651066710,417
1506651066719,418
1506651066722,419
1506651066731,420
1506651066740,425
1506651066748,425
1506651066756,430
1506651066764,433
1506651066773,436
1506651066780,442
1506651066788,444
1506651066796,449
1506651066805,453
1506651066813,456
1506651066821,463
1506651066829,465
1506651066837,470
1506651066845,472
1506651066854,472
1506651066862,476
1506651066871,476
1506651066878,478
1506651066883,477
1506651066891,476
1506651066899,478
1506651066908,475
1506651066916,474
1506651066924,471
1506651066933,468
1506651066940,467
1506651066948,462
1506651066956,460
1506651066965,460
1506651066973,460
1506651066981,467
1506651066989,479
1506651066997,503
1506651067005,536
1506651067014,578
1506651067022,632
1506651067030,685
1506651067038,743
1506651067042,797
1506651067050,841
1506651067059,880
1506651067067,904
1506651067075,912
1506651067084,912
1506651067093,912
1506651067100,892
1506651067108,863
1506651067116,830
1506651067125,791
1506651067133,747
1506651067141,707
1506651067149,662
1506651067157,621
1506651067165,585
1506651067174,551
1506651067182,524
1506651067190,498
1506651067198,478
1506651067202,463
1506651067210,452
1506651067218,444
1506651067227,430
1506651067235,419
1506651067243,413
1506651067251,409
1506651067259,411
1506651067268,414
1506651067276,420
1506651067284,430
1506651067293,440
1506651067300,454
1506651067309,464
1506651067317,478
1506651067325,491
1506651067333,500
1506651067341,512
1506651067350,517
1506651067358,522
1506651067362,527
1506651067370,526
1506651067378,526
1506651067387,519
1506651067395,517
1506651067403,510
1506651067411,497
1506651067419,489
1506651067427,471
1506651067436,458
1506651067444,448
1506651067452,436
1506651067460,430
1506651067468,421
1506651067477,416
1506651067485,413
1506651067493,409
1506651067501,410
1506651067509,408
1506651067517,409
1506651067525,412
1506651067530,413
1506651067538,418
1506651067546,420
1506651067554,425
1506651067562,430
1506651067571,433
1506651067579,439
1506651067587,442
1506651067595,446
1506651067604,450
1506651067612,452
1506651067620,457
1506651067628,459
1506651067636,461
1506651067644,465
1506651067653,464
1506651067661,467
1506651067669,466
1506651067677,467
1506651067685,467
1506651067689,465
1506651067697,466
1506651067705,462
1506651067714,461
1506651067722,460
1506651067730,454
1506651067738,454
1506651067746,450
1506651067754,448
1506651067763,447
1506651067771,444
1506651067779,447
1506651067787,453
1506651067795,467
1506651067804,490
1506651067812,521
1506651067820,566
1506651067828,613
1506651067836,669
1506651067844,725
1506651067849,775
1506651067857,823
1506651067865,859
1506651067874,885
1506651067881,900
1506651067889,901
1506651067898,893
1506651067906,873
1506651067915,845
1506651067923,811
1506651067931,770
1506651067940,729
1506651067948,683
1506651067956,640
1506651067964,600
1506651067973,559
1506651067980,527
1506651067988,497
1506651067997,471
1506651068004,451
1506651068009,432
1506651068017,420
1506651068025,406
1506651068034,398
1506651068041,394
1506651068050,389
1506651068058,391
1506651068067,394
1506651068075,402
1506651068083,412
1506651068091,422
1506651068099,437
1506651068107,450
1506651068116,466
1506651068124,482
1506651068132,493
1506651068140,506
1506651068148,515
1506651068156,520
1506651068165,526
1506651068170,526
1506651068178,525
1506651068186,521
1506651068194,514
1506651068202,506
1506651068210,494
1506651068218,484
1506651068226,471
1506651068234,459
1506651068242,450
1506651068251,439
1506651068259,431
1506651068267,421
1506651068276,414
1506651068284,411
1506651068292,406
1506651068300,406
1506651068308,403
1506651068316,402
1506651068324,404
1506651068328,404
1506651068337,409
1506651068345,412
1506651068353,414
1506651068362,419
1506651068370,421
1506651068378,427
1506651068385,431
1506651068394,435
1506651068402,440
1506651068410,442
1506651068418,447
1506651068426,450
1506651068434,452
1506651068443,457
1506651068451,457
1506651068459,460
1506651068468,460
1506651068476,460
1506651068484,463
1506651068488,462
1506651068497,462
1506651068505,460
1506651068514,459
1506651068522,458
1506651068530,454
1506651068538,453
1506651068546,449
1506651068554,446
1506651068562,445
1506651068570,440
1506651068578,438
1506651068586,436
1506651068594,433
1506651068602,434
1506651068611,436
1506651068619,447
1506651068627,462
1506651068635,487
1506651068644,525
1506651068647,569
1506651068656,622
1506651068664,678
1506651068673,730
1506651068681,782
1506651068689,824
1506651068697,857
1506651068705,879
1506651068714,886
1506651068722,885
1506651068730,869
1506651068739,846
1506651068746,814
1506651068755,773
1506651068763,733
1506651068771,687
1506651068778,643
1506651068787,599
1506651068795,557
1506651068803,522
1506651068808,487
1506651068816,460
1506651068824,436
1506651068833,415
1506651068840,400
1506651068849,385
1506651068857,377
1506651068865,371
1506651068873,367
1506651068881,372
1506651068889,377
1506651068898,388
1506651068906,402
1506651068914,417
1506651068922,436
1506651068930,452
1506651068939,473
1506651068947,490
1506651068955,504
1506651068963,520
1506651068967,529
1506651068975,537
1506651068983,542
1506651068992,541
1506651069000,540
1506651069009,532
1506651069017,525
1506651069025,515
1506651069033,501
1506651069041,490
1506651069049,474
1506651069058,462
1506651069066,452
1506651069074,438
1506651069082,430
1506651069090,420
1506651069098,414
1506651069106,409
1506651069115,404
1506651069123,403
1506651069127,399
1506651069135,402
1506651069143,404
1506651069151,404
1506651069159,408
1506651069168,411
1506651069176,416
1506651069185,420
1506651069193,423
1506651069201,429
1506651069209,432
1506651069217,438
1506651069225,443
1506651069235,446
1506651069242,453
1506651069250,455
1506651069259,460
1506651069267,464
1506651069275,464
1506651069283,468
1506651069290,466
1506651069294,467
1506651069303,467
1506651069312,464
1506651069320,464
1506651069328,459
1506651069337,457
1506651069345,454
1506651069353,449
1506651069361,449
1506651069369,447
1506651069377,451
1506651069385,459
1506651069394,473
1506651069402,500
1506651069411,533
1506651069418,578
1506651069426,628
1506651069435,679
1506651069443,733
1506651069451,779
1506651069455,820
1506651069463,851
1506651069471,869
1506651069479,879
1506651069487,873
1506651069496,858
1506651069504,835
1506651069512,800
1506651069520,766
1506651069528,722
1506651069536,679
1506651069544,635
1506651069553,591
1506651069561,553
1506651069569,515
1506651069578,483
1506651069585,457
1506651069594,432
1506651069601,415
1506651069610,397
1506651069614,385
1506651069623,377
1506651069631,370
1506651069640,371
1506651069648,372
1506651069656,380
1506651069664,391
1506651069673,403
1506651069680,422
1506651069688,438
1506651069696,456
1506651069705,475
1506651069713,491
1506651069721,508
1506651069729,520
1506651069737,531
1506651069745,539
1506651069753,541
1506651069762,543
1506651069770,539
1506651069775,532
1506651069783,525
1506651069790,511
1506651069799,501
1506651069807,485
1506651069815,472
1506651069823,460
1506651069831,446
1506651069840,438
1506651069847,426
1506651069856,417
1506651069865,412
1506651069873,405
1506651069881,404
1506651069889,402
1506651069897,401
1506651069905,403
1506651069913,402
1506651069921,406
1506651069929,407
1506651069934,411
1506651069942,416
1506651069950,418
1506651069958,424
1506651069967,427
1506651069975,431
1506651069983,438
1506651069991,441
1506651069999,447
1506651070008,449
1506651070016,454
1506651070024,458
1506651070032,459
1506651070040,463
1506651070049,463
1506651070057,464
1506651070065,467
1506651070073,465
1506651070081,465
1506651070089,463
1506651070094,461
1506651070102,459
1506651070110,455
1506651070118,454
1506651070126,448
1506651070135,446
1506651070143,445
1506651070151,441
1506651070159,443
1506651070168,446
1506651070176,454
1506651070184,475
1506651070192,502
1506651070200,543
1506651070208,591
1506651070216,646
1506651070225,704
1506651070233,758
1506651070241,810
1506651070249,851
1506651070253,882
1506651070261,903
1506651070270,907
1506651070278,901
1506651070286,883
1506651070294,857
1506651070302,824
1506651070311,784
1506651070319,742
1506651070327,697
1506651070335,652
1506651070343,610
1506651070351,569
1506651070359,536
1506651070368,505
1506651070376,479
1506651070384,459
1506651070392,440
1506651070400,428
1506651070408,415
1506651070413,405
1506651070421,399
1506651070429,393
1506651070437,394
1506651070445,396
1506651070454,402
1506651070462,412
1506651070471,421
1506651070479,436
1506651070487,449
1506651070495,464
1506651070503,479
1506651070511,490
1506651070519,503
1506651070527,511
1506651070536,517
1506651070544,524
1506651070552,523
1506651070560,523
1506651070569,518
1506651070573,512
1506651070581,505
1506651070589,493
1506651070597,485
1506651070605,472
1506651070613,459
1506651070622,450
1506651070630,437
1506651070638,429
1506651070647,420
1506651070655,412
1506651070663,408
1506651070672,402
1506651070680,400
1506651070687,397
1506651070696,398
1506651070704,401
1506651070713,400
1506651070721,404
1506651070729,406
1506651070734,410
1506651070741,415
1506651070749,418
1506651070758,424
1506651070766,428
1506651070774,432
1506651070781,437
1506651070790,440
1506651070798,445
1506651070806,449
1506651070814,451
1506651070822,455
1506651070831,456
1506651070839,458
1506651070848,458
1506651070856,458
1506651070864,460
1506651070872,459
1506651070880,459
1506651070888,457
1506651070893,455
1506651070901,454
1506651070909,450
1506651070917,448
1506651070925,445
1506651070933,441
1506651070941,440
1506651070949,435
1506651070957,433
1506651070966,432
1506651070974,433
1506651070983,442
1506651070991,455
1506651070999,481
1506651071007,515
1506651071015,559
1506651071023,613
1506651071031,667
1506651071039,724
1506651071048,777
1506651071052,821
1506651071060,859
1506651071069,882
1506651071077,894
1506651071086,895
1506651071094,882
1506651071102,862
1506651071110,830
1506651071118,795
1506651071126,755
1506651071134,710
1506651071142,669
1506651071150,623
1506651071158,585
1506651071167,549
1506651071175,516
1506651071183,492
1506651071191,465
1506651071200,449
1506651071208,433
1506651071213,418
1506651071221,409
1506651071228,399
1506651071237,393
1506651071245,391
1506651071253,390
1506651071261,396
1506651071269,402
1506651071278,412
1506651071286,424
1506651071294,436
1506651071302,452
1506651071310,464
1506651071318,480
1506651071326,494
1506651071334,502
1506651071342,512
1506651071351,516
1506651071359,519
1506651071367,519
1506651071372,515
1506651071380,512
1506651071388,503
1506651071396,495
1506651071405,486
1506651071413,473
1506651071422,464
1506651071430,451
1506651071437,441
1506651071446,431
1506651071454,421
1506651071462,416
1506651071470,408
1506651071478,404
1506651071486,400
1506651071494,397
1506651071502,400
1506651071510,398
1506651071518,400
1506651071528,404
1506651071535,405
1506651071540,411
1506651071548,414
1506651071556,419
1506651071565,424
1506651071574,427
1506651071581,433
1506651071589,435
1506651071597,439
1506651071606,444
1506651071613,445
1506651071622,451
1506651071630,452
1506651071638,454
1506651071646,457
1506651071654,457
1506651071662,459
1506651071671,458
1506651071679,459
1506651071687,459
1506651071695,457
1506651071699,459
1506651071707,455
1506651071715,454
1506651071724,454
1506651071733,450
1506651071741,450
1506651071749,446
1506651071757,445
1506651071765,443
1506651071775,439
1506651071781,438
1506651071789,434
1506651071798,432
1506651071806,431
1506651071815,427
1506651071823,428
1506651071831,427
1506651071839,429
1506651071847,438
1506651071855,451
1506651071859,478
1506651071868,512
1506651071876,558
1506651071884,612
1506651071893,668
1506651071900,729
1506651071908,780
1506651071917,827
1506651071925,866
1506651071933,888
1506651071941,901
1506651071949,900
1506651071958,887
1506651071966,864
1506651071974,831
1506651071982,795
1506651071990,749
1506651071998,704
1506651072006,659
1506651072014,611
1506651072019,571
1506651072027,531
1506651072035,497
1506651072044,469
1506651072052,443
1506651072060,426
1506651072068,409
1506651072076,397
1506651072084,388
1506651072093,380
1506651072101,379
1506651072109,379
1506651072117,383
1506651072125,391
1506651072134,399
1506651072142,413
1506651072150,426
1506651072158,442
1506651072166,459
1506651072175,474
1506651072179,489
1506651072186,499
1506651072194,510
1506651072203,519
1506651072212,522
1506651072220,526
1506651072228,524
1506651072236,520
1506651072244,516
1506651072252,505
1506651072260,497
1506651072269,484
1506651072277,472
1506651072285,460
1506651072294,445
1506651072301,437
1506651072310,424
1506651072319,416
1506651072326,410
1506651072334,402
1506651072338,400
1506651072346,397
1506651072354,395
1506651072362,395
1506651072371,395
1506651072380,398
1506651072388,399
1506651072396,402
1506651072404,407
1506651072413,409
1506651072420,415
1506651072428,419
1506651072437,423
1506651072445,430
1506651072453,432
1506651072461,438
1506651072469,442
1506651072478,445
1506651072486,450
1506651072494,451
1506651072498,456
1506651072506,456
1506651072514,458
1506651072522,461
1506651072531,459
1506651072539,461
1506651072547,460
1506651072555,458
1506651072563,458
1506651072572,454
1506651072580,453
1506651072588,449
1506651072596,446
1506651072604,443
1506651072613,436
1506651072621,435
1506651072629,431
1506651072637,429
1506651072645,431
1506651072654,432
1506651072657,443
1506651072666,459
1506651072674,485
1506651072682,521
1506651072690,564
1506651072699,615
1506651072707,667
1506651072715,717
1506651072723,765
1506651072731,801
1506651072739,830
1506651072747,847
1506651072756,853
1506651072764,848
1506651072772,831
1506651072780,807
1506651072788,773
1506651072797,735
1506651072805,695
1506651072813,648
1506651072817,606
1506651072825,563
1506651072834,522
1506651072842,487
1506651072850,452
1506651072858,427
1506651072866,403
1506651072875,384
1506651072883,371
1506651072891,359
1506651072899,355
1506651072907,352
1506651072915,354
1506651072923,363
1506651072932,371
1506651072940,387
1506651072949,404
1506651072957,422
1506651072965,444
1506651072973,463
1506651072977,485
1506651072985,502
1506651072993,517
1506651073001,532
1506651073010,538
1506651073018,545
1506651073026,546
1506651073035,541
1506651073042,538
1506651073050,527
1506651073059,517
1506651073067,504
1506651073075,490
1506651073083,478
1506651073092,461
1506651073100,450
1506651073108,437
1506651073116,425
1506651073125,417
1506651073133,407
1506651073137,402
1506651073145,398
1506651073154,394
1506651073162,394
1506651073170,392
1506651073178,394
1506651073186,395
1506651073194,397
1506651073203,402
1506651073211,403
1506651073219,410
1506651073227,416
1506651073235,419
1506651073243,426
1506651073251,429
1506651073259,435
1506651073268,440
1506651073276,443
1506651073285,448
1506651073293,450
1506651073297,455
1506651073305,457
1506651073313,458
1506651073321,461
1506651073330,461
1506651073338,463
1506651073346,463
1506651073354,461
1506651073362,463
1506651073371,460
1506651073379,459
1506651073387,456
1506651073395,453
1506651073403,452
1506651073411,447
1506651073419,448
1506651073428,450
1506651073436,456
1506651073444,472
1506651073452,493
1506651073456,527
1506651073464,571
1506651073473,619
1506651073481,674
1506651073489,725
1506651073497,775
1506651073505,818
1506651073514,849
1506651073522,872
1506651073530,879
1506651073538,879
1506651073547,866
1506651073555,841
1506651073563,812
1506651073572,773
1506651073580,732
1506651073588,688
1506651073596,643
1506651073604,601
1506651073612,557
1506651073620,521
1506651073625,489
1506651073633,459
1506651073641,438
1506651073649,417
1506651073657,402
1506651073665,390
1506651073674,379
1506651073682,376
1506651073690,372
1506651073698,375
1506651073706,381
1506651073715,390
1506651073723,405
1506651073731,418
1506651073739,435
1506651073747,454
1506651073756,471
1506651073764,490
1506651073772,505
1506651073780,519
1506651073784,531
1506651073793,537
1506651073801,544
1506651073809,544
1506651073817,541
1506651073825,536
1506651073833,526
1506651073841,519
1506651073849,505
1506651073857,494
1506651073866,481
1506651073875,467
1506651073882,456
1506651073891,442
1506651073899,433
1506651073907,425
1506651073916,415
1506651073923,412
1506651073931,406
1506651073939,404
1506651073944,405
1506651073953,402
1506651073961,405
1506651073969,406
1506651073977,409
1506651073985,413
1506651073993,416
1506651074001,421
1506651074009,424
1506651074017,430
1506651074025,434
1506651074033,437
1506651074041,443
1506651074050,445
1506651074058,449
1506651074066,454
1506651074075,454
1506651074084,459
1506651074092,460
1506651074099,462
1506651074104,463
1506651074112,462
1506651074121,465
1506651074128,461
1506651074137,461
1506651074145,460
1506651074153,456
1506651074161,455
1506651074169,451
1506651074178,449
1506651074186,448
1506651074194,445
1506651074202,449
1506651074210,455
1506651074218,470
1506651074227,495
1506651074235,526
1506651074243,571
1506651074251,618
1506651074259,670
1506651074263,722
1506651074272,767
1506651074280,809
1506651074288,838
1506651074296,858
1506651074304,868
1506651074313,864
1506651074322,851
1506651074329,828
1506651074337,798
1506651074345,762
1506651074354,721
1506651074361,680
1506651074369,636
1506651074378,595
1506651074386,559
1506651074394,522
1506651074402,493
1506651074410,465
1506651074418,443
1506651074423,425
1506651074431,409
1506651074439,399
1506651074447,389
1506651074455,384
1506651074464,383
1506651074472,383
1506651074480,391
1506651074488,399
1506651074497,411
1506651074504,427
1506651074513,441
1506651074521,460
1506651074529,474
1506651074537,490
1506651074545,506
1506651074554,516
1506651074562,528
1506651074570,533
1506651074578,537
1506651074582,540
1506651074590,535
1506651074599,531
1506651074607,523
1506651074615,512
1506651074623,503
1506651074631,489
1506651074640,477
1506651074648,463
1506651074656,451
1506651074664,440
1506651074673,428
1506651074681,421
1506651074689,413
1506651074697,407
1506651074706,405
1506651074714,400
1506651074722,401
1506651074730,400
1506651074738,401
1506651074743,404
1506651074751,406
1506651074759,411
1506651074767,412
1506651074776,416
1506651074784,421
1506651074792,423
1506651074800,429
1506651074808,432
1506651074816,435
1506651074825,440
1506651074833,442
1506651074841,447
1506651074849,450
1506651074858,453
1506651074865,456
1506651074874,456
1506651074882,459
1506651074890,460
1506651074898,460
1506651074902,461
1506651074911,458
1506651074919,459
1506651074927,457
1506651074935,455
1506651074944,453
1506651074951,450
1506651074960,448
1506651074968,445
1506651074976,442
1506651074984,442
1506651074993,439
1506651075002,446
1506651075010,456
1506651075017,475
1506651075026,505
1506651075034,543
1506651075042,592
1506651075050,642
1506651075058,695
1506651075062,746
1506651075070,788
1506651075078,826
1506651075086,850
1506651075095,864
1506651075103,868
1506651075111,856
1506651075119,838
1506651075127,811
1506651075136,775
1506651075144,737
1506651075152,693
1506651075160,651
1506651075168,607
1506651075177,566
1506651075185,530
1506651075194,495
1506651075201,467
1506651075209,443
1506651075217,423
1506651075221,409
1506651075229,395
1506651075238,388
1506651075246,382
1506651075254,381
1506651075262,386
1506651075271,390
1506651075279,401
1506651075287,414
1506651075295,427
1506651075303,446
1506651075312,460
1506651075320,479
1506651075328,495
1506651075336,510
1506651075345,523
1506651075353,532
1506651075361,540
1506651075370,544
1506651075377,544
1506651075381,544
1506651075389,536
1506651075398,528
1506651075406,519
1506651075414,506
1506651075422,497
1506651075430,483
1506651075438,471
1506651075447,459
1506651075455,448
1506651075463,441
1506651075472,430
1506651075480,424
1506651075488,419
1506651075496,412
1506651075504,411
1506651075513,407
1506651075521,408
1506651075529,409
1506651075537,410
1506651075541,414
1506651075549,416
1506651075558,421
1506651075566,425
1506651075574,427
1506651075582,434
1506651075590,436
1506651075598,442
1506651075606,445
1506651075614,448
1506651075623,454
1506651075631,455
1506651075639,459
1506651075647,461
1506651075655,462
1506651075663,465
1506651075673,464
1506651075681,465
1506651075688,464
1506651075696,462
1506651075704,463
1506651075709,459
1506651075717,457
1506651075726,455
1506651075733,452
1506651075742,452
1506651075750,450
1506651075758,455
1506651075767,466
1506651075775,482
1506651075783,511
1506651075791,544
1506651075799,587
1506651075807,635
1506651075815,682
1506651075823,731
1506651075832,771
1506651075840,805
1506651075849,829
1506651075857,842
1506651075865,846
1506651075869,836
1506651075878,818
1506651075885,792
1506651075893,758
1506651075902,721
1506651075910,680
1506651075918,638
1506651075926,597
1506651075934,557
1506651075942,523
1506651075951,489
1506651075959,462
1506651075967,438
1506651075976,417
1506651075984,404
1506651075991,389
1506651076000,381
1506651076008,378
1506651076016,376
1506651076024,383
1506651076028,389
1506651076036,400
1506651076045,415
1506651076054,431
1506651076062,452
1506651076070,468
1506651076078,487
1506651076086,505
1506651076094,518
1506651076103,534
1506651076110,543
1506651076119,549
1506651076127,554
1506651076135,551
1506651076143,549
1506651076151,540
1506651076160,531
1506651076168,520
1506651076176,506
1506651076184,496
1506651076188,481
1506651076196,468
1506651076204,457
1506651076213,444
1506651076221,436
1506651076229,427
1506651076237,420
1506651076245,416
1506651076254,411
1506651076262,411
1506651076270,408
1506651076279,409
1506651076287,411
1506651076294,410
1506651076303,416
1506651076311,416
1506651076319,420
1506651076327,425
1506651076335,427
1506651076343,433
1506651076347,435
1506651076356,440
1506651076364,446
1506651076373,448
1506651076381,453
1506651076390,456
1506651076397,458
1506651076406,463
1506651076414,463
1506651076422,466
1506651076430,466
1506651076438,467
1506651076446,467
1506651076455,466
1506651076463,466
1506651076471,464
1506651076479,462
1506651076488,461
1506651076495,458
1506651076503,457
1506651076507,453
1506651076516,451
1506651076524,451
1506651076533,450
1506651076541,455
1506651076549,463
1506651076557,479
1506651076565,507
1506651076573,543
1506651076581,590
1506651076589,641
1506651076597,694
1506651076606,748
1506651076614,794
1506651076622,836
1506651076630,864
1506651076638,884
1506651076647,891
1506651076655,885
1506651076663,871
1506651076668,845
1506651076676,811
1506651076684,775
1506651076692,731
1506651076700,689
1506651076708,645
1506651076716,602
1506651076724,565
1506651076733,528
1506651076741,500
1506651076750,472
1506651076758,450
1506651076766,434
1506651076774,418
1506651076782,409
1506651076791,401
1506651076799,396
1506651076807,397
1506651076815,398
1506651076823,405
1506651076828,413
1506651076836,425
1506651076844,440
1506651076853,453
1506651076860,470
1506651076868,485
1506651076877,499
1506651076885,514
1506651076892,522
1506651076900,534
1506651076909,539
1506651076917,541
1506651076925,543
1506651076933,539
1506651076942,535
1506651076950,526
1506651076959,516
1506651076967,506
1506651076975,492
1506651076983,481
1506651076987,468
1506651076996,455
1506651077003,447
1506651077011,435
1506651077020,429
1506651077028,421
1506651077037,415
1506651077045,413
1506651077053,409
1506651077061,408
1506651077069,407
1506651077077,408
1506651077085,411
1506651077093,412
1506651077102,416
1506651077110,419
1506651077118,422
1506651077126,429
1506651077134,431
1506651077142,437
1506651077146,441
1506651077154,445
1506651077163,450
1506651077172,452
1506651077180,458
1506651077189,460
1506651077196,462
1506651077205,467
1506651077213,465
1506651077220,468
1506651077229,469
1506651077237,468
1506651077245,468
1506651077253,466
1506651077261,465
1506651077269,462
1506651077278,459
1506651077286,458
1506651077294,452
1506651077302,451
1506651077306,448
1506651077314,444
1506651077322,444
1506651077330,445
1506651077339,451
1506651077347,464
1506651077356,486
1506651077364,519
1506651077372,559
1506651077381,608
1506651077389,660
1506651077396,712
1506651077405,763
1506651077413,804
1506651077421,839
1506651077429,863
1506651077437,873
1506651077445,875
1506651077454,864
1506651077462,844
1506651077470,815
1506651077475,780
1506651077483,742
1506651077491,699
1506651077499,658
1506651077507,617
1506651077515,576
1506651077523,543
1506651077531,509
1506651077539,482
1506651077548,459
1506651077556,440
1506651077564,427
1506651077573,412
1506651077581,403
1506651077589,397
1506651077597,392
1506651077605,394
1506651077613,395
1506651077621,403
1506651077629,414
1506651077634,424
1506651077642,441
1506651077650,456
1506651077658,473
1506651077666,488
1506651077675,502
1506651077683,516
1506651077691,524
1506651077700,532
1506651077708,539
1506651077716,537
1506651077724,537
1506651077732,531
1506651077740,524
1506651077749,514
1506651077757,503
1506651077765,494
1506651077773,480
1506651077781,469
1506651077789,457
1506651077793,446
1506651077802,439
1506651077810,428
1506651077818,422
1506651077827,418
1506651077835,413
1506651077843,413
1506651077851,411
1506651077859,410
1506651077868,411
1506651077876,412
1506651077884,415
1506651077893,416
1506651077901,420
1506651077908,424
1506651077916,426
1506651077924,432
1506651077933,434
1506651077941,439
1506651077948,443
1506651077953,445
1506651077962,451
1506651077970,453
1506651077979,455
1506651077987,457
1506651077994,458
1506651078003,461
1506651078011,461
1506651078019,462
1506651078027,463
1506651078036,461
1506651078044,463
1506651078053,462
1506651078060,462
1506651078069,463
1506651078077,460
1506651078085,460
1506651078093,456
1506651078102,454
1506651078109,451
1506651078113,447
1506651078121,445
1506651078130,440
1506651078138,437
1506651078146,436
1506651078154,433
1506651078162,438
1506651078170,445
1506651078179,462
1506651078187,489
1506651078195,522
1506651078203,570
1506651078211,619
1506651078220,674
1506651078228,728
1506651078236,775
1506651078245,818
1506651078252,849
1506651078261,868
1506651078269,878
1506651078273,873
1506651078281,860
1506651078290,835
1506651078297,803
1506651078306,766
1506651078314,723
1506651078322,681
1506651078330,635
1506651078338,593
1506651078347,554
1506651078355,516
1506651078363,486
1506651078371,457
1506651078380,434
1506651078388,417
1506651078395,401
1506651078404,391
1506651078412,382
1506651078420,379
1506651078429,380
1506651078433,382
1506651078442,392
1506651078449,401
1506651078457,415
1506651078465,432
1506651078473,448
1506651078482,467
1506651078490,483
1506651078498,500
1506651078507,515
1506651078515,527
1506651078523,539
1506651078531,544
1506651078539,547
1506651078548,548
1506651078556,543
1506651078564,539
1506651078572,528
1506651078580,517
1506651078588,506
1506651078593,491
1506651078601,480
1506651078609,464
1506651078617,452
1506651078625,442
1506651078633,430
1506651078642,424
1506651078650,415
1506651078658,410
1506651078666,408
1506651078674,404
1506651078683,405
1506651078691,405
1506651078699,405
1506651078707,409
1506651078715,410
1506651078723,417
1506651078731,418
1506651078739,423
1506651078748,430
1506651078752,433
1506651078760,440
1506651078768,444
1506651078777,448
1506651078785,454
1506651078793,456
1506651078802,461
1506651078810,463
1506651078818,465
1506651078826,468
1506651078834,467
1506651078842,470
1506651078850,469
1506651078859,468
1506651078867,468
1506651078875,464
1506651078884,463
1506651078891,459
1506651078899,455
1506651078907,455
1506651078912,449
1506651078920,447
1506651078928,442
1506651078936,441
1506651078944,444
1506651078953,449
1506651078961,466
1506651078969,489
1506651078978,520
1506651078986,562
1506651078994,609
1506651079002,660
1506651079011,708
1506651079019,753
1506651079027,795
1506651079035,821
1506651079043,842
1506651079051,848
1506651079060,844
1506651079068,831
1506651079072,806
1506651079080,776
1506651079088,738
1506651079096,699
1506651079104,657
1506651079112,613
1506651079121,574
1506651079128,536
1506651079138,501
1506651079146,472
1506651079154,444
1506651079162,424
1506651079170,405
1506651079178,389
1506651079187,380
1506651079194,373
1506651079202,373
1506651079211,373
1506651079220,379
1506651079228,390
1506651079232,402
1506651079240,419
1506651079248,437
1506651079256,455
1506651079264,477
1506651079273,492
1506651079281,511
1506651079289,524
1506651079296,537
1506651079305,548
1506651079313,550
1506651079322,552
1506651079330,548
1506651079338,542
1506651079346,536
1506651079354,522
1506651079362,510
1506651079371,496
1506651079379,481
1506651079387,469
1506651079391,455
1506651079399,446
1506651079407,434
1506651079416,425
1506651079424,420
1506651079432,411
1506651079440,409
1506651079448,406
1506651079456,403
1506651079464,406
1506651079473,405
1506651079481,408
1506651079490,410
1506651079497,413
1506651079506,419
1506651079514,421
1506651079522,428
1506651079530,432
1506651079538,436
1506651079547,443
1506651079554,446
1506651079559,451
1506651079567,456
1506651079576,458
1506651079584,462
1506651079592,463
1506651079600,466
1506651079608,466
1506651079616,466
1506651079624,468
1506651079632,466
1506651079641,466
1506651079649,464
1506651079657,462
1506651079665,461
1506651079674,457
1506651079682,456
1506651079690,454
1506651079698,451
1506651079706,452
1506651079714,454
1506651079720,461
1506651079728,476
1506651079736,499
1506651079743,535
1506651079752,576
1506651079760,626
1506651079768,680
1506651079776,732
1506651079784,783
1506651079793,824
1506651079801,857
1506651079809,878
1506651079817,887
1506651079825,887
1506651079834,872
1506651079842,850
1506651079850,821
1506651079858,782
1506651079866,744
1506651079875,700
1506651079880,658
1506651079887,616
1506651079896,577
1506651079904,544
1506651079912,511
1506651079920,485
1506651079928,463
1506651079936,443
1506651079944,430
1506651079953,416
1506651079960,408
1506651079968,402
1506651079977,397
1506651079985,398
1506651079994,400
1506651080001,407
1506651080010,416
1506651080018,427
1506651080026,441
1506651080034,453
1506651080038,468
1506651080047,482
1506651080056,494
1506651080064,508
1506651080072,516
1506651080080,523
1506651080088,528
1506651080096,529
1506651080104,530
1506651080112,524
1506651080120,519
1506651080128,510
1506651080136,498
1506651080145,489
1506651080153,474
1506651080161,462
1506651080169,452
1506651080178,439
1506651080186,432
1506651080194,422
1506651080198,416
1506651080206,410
1506651080215,406
1506651080223,405
1506651080231,402
1506651080240,403
1506651080247,405
1506651080256,405
1506651080265,410
1506651080272,412
1506651080280,416
1506651080288,421
1506651080297,424
1506651080305,430
1506651080313,433
1506651080321,439
1506651080329,443
1506651080337,445
1506651080346,451
1506651080354,453
1506651080358,457
1506651080366,461
1506651080374,461
1506651080382,465
1506651080390,464
1506651080399,465
1506651080407,466
1506651080415,464
1506651080423,466
1506651080431,462
1506651080440,461
1506651080448,460
1506651080456,455
1506651080464,454
1506651080472,449
1506651080480,446
1506651080489,446
1506651080497,445
1506651080505,452
1506651080513,462
1506651080518,483
1506651080526,515
1506651080534,553
1506651080542,603
1506651080550,654
1506651080559,708
1506651080567,760
1506651080575,802
1506651080583,840
1506651080593,864
1506651080599,877
1506651080608,880
1506651080617,869
1506651080624,852
1506651080632,825
1506651080640,792
1506651080648,756
1506651080657,713
1506651080665,674
1506651080673,632
1506651080678,593
1506651080686,559
1506651080694,526
1506651080702,502
1506651080710,477
1506651080718,458
1506651080726,444
1506651080734,431
1506651080742,422
1506651080751,412
1506651080759,405
1506651080767,403
1506651080776,401
1506651080784,404
1506651080793,409
1506651080800,417
1506651080809,428
1506651080817,438
1506651080825,453
1506651080833,465
1506651080837,478
1506651080845,490
1506651080853,498
1506651080861,508
1506651080869,512
1506651080878,515
1506651080886,517
1506651080894,514
1506651080902,512
1506651080910,505
1506651080918,497
1506651080927,489
1506651080935,478
1506651080943,470
1506651080952,457
1506651080959,447
1506651080968,438
1506651080976,428
1506651080985,421
1506651080993,415
1506651080996,409
1506651081004,407
1506651081012,403
1506651081021,404
1506651081029,403
1506651081037,405
1506651081046,408
1506651081055,409
1506651081063,415
1506651081071,417
1506651081079,422
1506651081087,428
1506651081095,431
1506651081103,437
1506651081112,440
1506651081120,444
1506651081130,449
1506651081137,451
1506651081145,457
1506651081153,458
1506651081157,460
1506651081165,464
1506651081173,463
1506651081181,465
1506651081190,464
1506651081198,463
1506651081206,464
1506651081214,461
1506651081222,461
1506651081230,458
1506651081239,456
1506651081247,456
1506651081255,452
1506651081263,451
1506651081271,448
1506651081280,445
1506651081288,444
1506651081295,439
1506651081304,438
1506651081312,435
1506651081316,434
1506651081324,437
1506651081333,442
1506651081340,459
1506651081349,482
1506651081357,513
1506651081365,557
1506651081373,605
1506651081382,659
1506651081390,713
1506651081398,762
1506651081406,807
1506651081414,839
1506651081422,863
1506651081431,873
1506651081439,872
1506651081447,863
1506651081455,839
1506651081463,811
1506651081471,776
1506651081475,736
1506651081484,697
1506651081493,653
1506651081500,614
1506651081509,576
1506651081517,542
1506651081525,513
1506651081533,486
1506651081541,465
1506651081549,447
1506651081557,431
1506651081566,420
1506651081574,408
1506651081583,401
1506651081591,397
1506651081598,395
1506651081607,399
1506651081615,402
1506651081623,411
1506651081631,421
1506651081639,433
1506651081644,449
1506651081652,461
1506651081660,475
1506651081668,488
1506651081676,499
1506651081685,509
1506651081694,515
1506651081701,522
1506651081709,524
1506651081717,523
1506651081725,522
1506651081734,514
1506651081742,508
1506651081750,499
1506651081758,489
1506651081766,479
1506651081774,466
1506651081783,456
1506651081791,445
1506651081799,435
1506651081804,429
1506651081812,419
1506651081820,414
1506651081828,409
1506651081836,406
1506651081844,405
1506651081853,404
1506651081861,404
1506651081869,405
1506651081877,407
1506651081886,411
1506651081894,412
1506651081901,417
1506651081910,420
1506651081918,422
1506651081926,430
1506651081934,432
1506651081943,437
1506651081951,441
1506651081959,445
1506651081963,450
1506651081971,451
1506651081980,455
1506651081988,457
1506651081995,457
1506651082004,461
1506651082012,461
1506651082020,463
1506651082028,464
1506651082037,462
1506651082045,463
1506651082054,461
1506651082062,464
1506651082070,462
1506651082078,458
1506651082087,456
1506651082094,451
1506651082103,449
1506651082111,445
1506651082119,439
1506651082123,438
1506651082131,434
1506651082139,433
1506651082147,431
1506651082156,431
1506651082164,438
1506651082172,447
1506651082180,467
1506651082189,497
1506651082196,534
1506651082205,582
1506651082213,631
1506651082221,683
1506651082229,734
1506651082237,776
1506651082246,813
1506651082254,837
1506651082262,851
1506651082271,854
1506651082279,843
1506651082283,825
1506651082291,795
1506651082300,762
1506651082307,724
1506651082316,681
1506651082324,640
1506651082333,597
1506651082340,558
1506651082348,523
1506651082357,490
1506651082365,464
1506651082373,440
1506651082381,422
1506651082389,406
1506651082398,393
1506651082406,386
1506651082414,378
1506651082422,378
1506651082431,381
1506651082438,386
1506651082443,398
1506651082451,410
1506651082459,426
1506651082467,442
1506651082475,459
1506651082484,480
1506651082492,495
1506651082500,509
1506651082508,523
1506651082516,532
1506651082524,541
1506651082533,543
1506651082541,543
1506651082549,542
1506651082557,535
1506651082566,529
1506651082574,518
1506651082582,508
1506651082590,496
1506651082598,481
1506651082602,472
1506651082611,458
1506651082619,447
1506651082627,438
1506651082635,427
1506651082643,422
1506651082651,415
1506651082659,412
1506651082668,409
1506651082676,408
1506651082684,409
1506651082692,408
1506651082700,410
1506651082708,415
1506651082717,417
1506651082725,423
1506651082733,425
1506651082741,429
1506651082749,435
1506651082758,438
1506651082762,444
1506651082770,446
1506651082778,452
1506651082786,455
1506651082795,456
1506651082803,461
1506651082811,463
1506651082819,465
1506651082827,468
1506651082835,468
1506651082843,470
1506651082852,469
1506651082860,469
1506651082868,470
1506651082876,468
1506651082885,469
1506651082893,464
1506651082901,463
1506651082909,461
1506651082917,456
1506651082921,456
1506651082930,451
1506651082938,448
1506651082946,447
1506651082955,446
1506651082963,451
1506651082971,460
1506651082979,478
1506651082988,507
1506651082996,542
1506651083004,589
1506651083012,637
1506651083020,688
1506651083028,738
1506651083036,780
1506651083044,817
1506651083053,841
1506651083061,856
1506651083069,861
1506651083077,852
1506651083081,836
1506651083090,807
1506651083098,775
1506651083107,738
1506651083114,696
1506651083123,656
1506651083130,614
1506651083139,575
1506651083147,541
1506651083155,508
1506651083163,483
1506651083172,459
1506651083180,441
1506651083188,427
1506651083196,413
1506651083204,405
1506651083213,396
1506651083221,392
1506651083229,393
1506651083237,394
1506651083241,403
1506651083250,412
1506651083258,425
1506651083266,440
1506651083274,455
1506651083283,472
1506651083292,487
1506651083299,501
1506651083307,515
1506651083315,524
1506651083324,533
1506651083331,538
1506651083339,539
1506651083347,539
1506651083356,534
1506651083364,530
1506651083372,520
1506651083381,510
1506651083388,501
1506651083396,487
1506651083404,477
1506651083409,462
1506651083418,452
1506651083426,444
1506651083434,433
1506651083442,426
1506651083450,420
1506651083458,415
1506651083467,414
1506651083475,410
1506651083483,412
1506651083491,411
1506651083499,413
1506651083508,417
1506651083516,418
1506651083524,422
1506651083532,425
1506651083540,429
1506651083548,435
1506651083556,437
1506651083564,444
1506651083569,446
1506651083577,451
1506651083586,455
1506651083594,458
1506651083602,463
1506651083610,464
1506651083618,465
1506651083626,468
1506651083634,467
1506651083643,469
1506651083651,468
1506651083659,467
1506651083667,468
1506651083676,466
1506651083684,467
1506651083693,463
1506651083700,462
1506651083708,461
1506651083716,455
1506651083724,455
1506651083728,451
1506651083737,448
1506651083745,448
1506651083753,445
1506651083761,448
1506651083769,452
1506651083777,464
1506651083786,486
1506651083795,514
1506651083802,555
1506651083810,600
1506651083819,649
1506651083827,701
1506651083836,746
1506651083843,788
1506651083851,820
1506651083859,841
1506651083868,854
1506651083875,853
1506651083884,845
1506651083889,824
1506651083897,797
1506651083905,768
1506651083913,728
1506651083921,690
1506651083929,649
1506651083938,609
1506651083946,574
1506651083954,539
1506651083962,510
1506651083970,483
1506651083978,461
1506651083987,445
1506651083995,428
1506651084003,416
1506651084011,407
1506651084019,399
1506651084028,399
1506651084036,397
1506651084043,402
1506651084048,409
1506651084056,418
1506651084064,431
1506651084072,444
1506651084081,460
1506651084089,474
1506651084097,488
1506651084106,504
1506651084114,515
1506651084122,526
1506651084130,533
1506651084138,536
1506651084146,540
1506651084154,536
1506651084163,533
1506651084171,526
1506651084179,517
1506651084187,510
1506651084195,496
1506651084203,487
1506651084208,475
1506651084216,462
1506651084224,455
1506651084232,443
1506651084240,435
1506651084249,428
1506651084257,421
1506651084265,418
1506651084273,414
1506651084281,414
1506651084289,414
1506651084298,414
1506651084306,418
1506651084314,419
1506651084322,425
1506651084330,428
1506651084339,430
1506651084347,437
1506651084355,439
1506651084363,443
1506651084367,447
1506651084375,450
1506651084384,455
1506651084392,456
1506651084399,461
1506651084408,465
1506651084417,466
1506651084425,471
1506651084433,470
1506651084441,472
1506651084449,473
1506651084458,473
1506651084466,474
1506651084474,472
1506651084482,472
1506651084490,471
1506651084498,468
1506651084506,468
1506651084515,463
1506651084523,461
1506651084527,458
1506651084535,452
1506651084543,452
1506651084551,447
1506651084559,446
1506651084568,448
1506651084576,453
1506651084585,467
1506651084593,485
1506651084601,516
1506651084609,554
1506651084617,598
1506651084625,649
1506651084634,697
1506651084642,744
1506651084650,786
1506651084658,817
1506651084666,843
1506651084675,852
1506651084683,855
1506651084687,846
1506651084695,825
1506651084704,800
1506651084712,764
1506651084720,727
1506651084728,688
1506651084736,646
1506651084744,608
1506651084753,569
1506651084760,537
1506651084769,505
1506651084777,477
1506651084785,456
1506651084794,435
1506651084801,421
1506651084809,408
1506651084818,398
1506651084826,396
1506651084834,393
1506651084843,396
1506651084847,403
1506651084855,411
1506651084863,426
1506651084871,439
1506651084880,456
1506651084888,474
1506651084896,491
1506651084904,510
1506651084913,522
1506651084920,536
1506651084929,548
1506651084937,552
1506651084945,558
1506651084953,557
1506651084961,554
1506651084970,550
1506651084978,539
1506651084986,530
1506651084994,515
1506651085002,504
1506651085007,491
1506651085015,476
1506651085023,467
1506651085031,454
1506651085039,444
1506651085047,436
1506651085056,428
1506651085064,424
1506651085072,419
1506651085080,417
1506651085088,416
1506651085096,416
1506651085104,420
1506651085112,420
1506651085121,424
1506651085129,429
1506651085137,431
1506651085145,437
1506651085153,440
1506651085161,446
1506651085166,452
1506651085174,455
1506651085182,462
1506651085191,464
1506651085198,470
1506651085207,474
1506651085215,475
1506651085223,480
1506651085231,480
1506651085239,481
1506651085247,483
1506651085256,481
1506651085264,481
1506651085272,479
1506651085280,477
1506651085289,476
1506651085298,472
1506651085306,471
1506651085314,465
1506651085322,462
1506651085326,460
1506651085335,455
1506651085343,454
1506651085351,451
1506651085359,453
1506651085367,461
1506651085375,473
1506651085384,497
1506651085392,527
1506651085399,567
1506651085407,613
1506651085415,659
1506651085424,708
1506651085432,750
1506651085440,788
1506651085448,817
1506651085457,833
1506651085465,844
1506651085473,839
1506651085481,825
1506651085486,805
1506651085494,775
1506651085502,742
1506651085510,702
1506651085519,661
1506651085527,621
1506651085535,579
1506651085543,543
1506651085551,507
1506651085559,476
1506651085568,450
1506651085576,426
1506651085584,409
1506651085592,392
1506651085600,380
1506651085609,375
1506651085617,372
1506651085625,377
1506651085633,382
1506651085641,394
1506651085646,410
1506651085654,426
1506651085662,448
1506651085670,468
1506651085678,487
1506651085687,508
1506651085695,524
1506651085703,540
1506651085711,552
1506651085719,559
1506651085727,564
1506651085735,563
1506651085743,562
1506651085752,553
1506651085760,545
1506651085768,535
1506651085776,520
1506651085785,508
1506651085794,493
1506651085801,479
1506651085809,466
1506651085813,452
1506651085822,443
1506651085829,433
1506651085838,424
1506651085846,419
1506651085854,413
1506651085862,412
1506651085870,410
1506651085878,410
1506651085887,413
1506651085896,413
1506651085903,418
1506651085911,421
1506651085919,424
1506651085928,431
1506651085936,434
1506651085944,441
1506651085952,445
1506651085960,450
1506651085969,455
1506651085974,458
1506651085982,463
1506651085990,465
1506651085998,467
1506651086006,471
1506651086015,472
1506651086023,474
1506651086031,473
1506651086039,472
1506651086047,472
1506651086056,470
1506651086064,470
1506651086072,467
1506651086080,465
1506651086088,467
1506651086096,467
1506651086104,476
1506651086112,491
1506651086120,514
1506651086128,550
1506651086133,587
1506651086141,633
1506651086149,679
1506651086157,725
1506651086165,769
1506651086173,803
1506651086182,830
1506651086191,847
1506651086198,852
1506651086206,849
1506651086215,832
1506651086223,811
1506651086231,780
1506651086239,745
1506651086247,707
1506651086255,664
1506651086264,625
1506651086272,584
1506651086280,546
1506651086288,515
1506651086293,483
1506651086300,459
1506651086308,437
1506651086316,419
1506651086325,406
1506651086333,394
1506651086341,387
1506651086350,383
1506651086358,385
1506651086367,392
1506651086375,400
1506651086383,414
1506651086391,429
1506651086399,446
1506651086407,466
1506651086415,483
1506651086423,502
1506651086431,517
1506651086439,531
1506651086448,543
1506651086453,550
1506651086461,556
1506651086469,556
1506651086477,553
1506651086485,549
1506651086493,538
1506651086501,528
1506651086509,516
1506651086517,502
1506651086526,491
1506651086534,476
1506651086543,464
1506651086551,451
1506651086559,441
1506651086566,433
1506651086576,424
1506651086583,420
1506651086592,415
1506651086600,412
1506651086607,413
1506651086612,412
1506651086620,413
1506651086628,415
1506651086637,418
1506651086645,423
1506651086653,425
1506651086661,431
1506651086669,434
1506651086678,437
1506651086686,444
1506651086694,447
1506651086702,451
1506651086710,455
1506651086718,459
1506651086726,464
1506651086736,465
1506651086744,469
1506651086752,471
1506651086760,472
1506651086768,474
1506651086772,471
1506651086780,472
1506651086788,469
1506651086797,466
1506651086804,467
1506651086813,465
1506651086821,466
1506651086829,471
1506651086837,481
1506651086845,501
1506651086853,527
1506651086861,565
1506651086869,608
1506651086878,656
1506651086887,709
1506651086895,755
1506651086904,800
1506651086912,836
1506651086920,861
1506651086927,878
1506651086931,881
1506651086939,875
1506651086948,859
1506651086956,835
1506651086964,804
1506651086972,765
1506651086980,726
1506651086989,685
1506651086997,642
1506651087005,605
1506651087013,566
1506651087021,534
1506651087030,506
1506651087038,480
1506651087046,461
1506651087054,443
1506651087062,430
1506651087070,419
1506651087079,409
1506651087087,405
1506651087091,401
1506651087099,403
1506651087108,408
1506651087116,415
1506651087124,426
1506651087133,437
1506651087141,451
1506651087149,465
1506651087157,479
1506651087165,494
1506651087173,504
1506651087181,515
1506651087190,524
1506651087198,528
1506651087206,533
1506651087214,531
1506651087222,529
1506651087230,524
1506651087239,516
1506651087247,509
1506651087251,497
1506651087259,487
1506651087267,476
1506651087276,463
1506651087284,456
1506651087292,444
1506651087300,436
1506651087309,429
1506651087316,421
1506651087325,418
1506651087333,414
1506651087341,412
1506651087350,411
1506651087358,410
1506651087366,413
1506651087374,413
1506651087382,417
1506651087390,421
1506651087399,424
1506651087406,430
1506651087411,432
1506651087419,437
1506651087427,441
1506651087435,444
1506651087443,450
1506651087451,451
1506651087460,456
1506651087468,459
1506651087476,460
1506651087484,464
1506651087493,463
1506651087501,465
1506651087509,465
1506651087518,464
1506651087526,465
1506651087534,462
1506651087542,461
1506651087550,460
1506651087558,457
1506651087566,460
1506651087574,461
1506651087579,471
1506651087587,488
1506651087595,512
1506651087603,549
1506651087611,589
1506651087619,636
1506651087627,685
1506651087635,731
1506651087644,776
1506651087652,809
1506651087660,835
1506651087668,852
1506651087676,854
1506651087684,849
1506651087693,831
1506651087701,807
1506651087709,777
1506651087717,740
1506651087725,704
1506651087733,663
1506651087738,624
1506651087746,588
1506651087754,552
1506651087762,524
1506651087770,495
1506651087779,472
1506651087787,453
1506651087796,435
1506651087803,423
1506651087812,410
1506651087820,401
1506651087828,396
1506651087836,393
1506651087844,396
1506651087853,400
1506651087861,409
1506651087869,421
1506651087877,433
1506651087886,449
1506651087894,463
1506651087898,477
1506651087906,493
1506651087914,505
1506651087922,517
1506651087930,522
1506651087938,528
1506651087947,530
1506651087955,529
1506651087963,527
1506651087972,520
1506651087980,512
1506651087988,504
1506651087997,490
1506651088004,481
1506651088013,469
1506651088021,457
1506651088029,448
1506651088037,438
1506651088045,431
1506651088053,422
1506651088057,417
1506651088066,413
1506651088074,409
1506651088082,408
1506651088090,407
1506651088099,407
1506651088107,409
1506651088115,410
1506651088123,414
1506651088132,415
1506651088140,419
1506651088148,424
1506651088156,427
1506651088164,433
1506651088172,436
1506651088181,441
1506651088189,446
1506651088197,447
1506651088205,453
1506651088213,455
1506651088218,458
1506651088226,462
1506651088234,463
1506651088242,465
1506651088250,465
1506651088258,466
1506651088266,467
1506651088275,464
1506651088283,465
1506651088291,461
1506651088300,458
1506651088308,456
1506651088316,452
1506651088324,450
1506651088332,448
1506651088340,446
1506651088348,450
1506651088357,457
1506651088365,474
1506651088373,498
1506651088377,533
1506651088385,577
1506651088394,622
1506651088402,672
1506651088410,720
1506651088418,763
1506651088426,800
1506651088434,825
1506651088442,843
1506651088451,846
1506651088459,841
1506651088467,825
1506651088475,800
1506651088483,770
1506651088493,733
1506651088500,694
1506651088508,655
1506651088516,613
1506651088525,575
1506651088532,539
1506651088537,506
1506651088545,480
1506651088553,455
1506651088562,437
1506651088570,420
1506651088578,406
1506651088586,398
1506651088595,389
1506651088603,388
1506651088611,388
1506651088619,392
1506651088627,401
1506651088635,411
1506651088643,425
1506651088652,439
1506651088660,455
1506651088668,471
1506651088676,485
1506651088684,500
1506651088692,510
1506651088697,519
1506651088705,528
1506651088713,531
1506651088721,533
1506651088730,530
1506651088738,525
1506651088746,518
1506651088754,508
1506651088762,499
1506651088770,488
1506651088778,476
1506651088787,466
1506651088795,453
1506651088803,446
1506651088811,436
1506651088819,428
1506651088827,422
1506651088836,415
1506651088844,411
1506651088852,407
1506651088856,405
1506651088864,406
1506651088873,405
1506651088881,409
1506651088889,411
1506651088897,412
1506651088906,419
1506651088914,421
1506651088922,425
1506651088930,428
1506651088938,432
1506651088946,438
1506651088955,440
1506651088963,447
1506651088971,450
1506651088979,454
1506651088988,459
1506651088996,461
1506651089004,464
1506651089012,466
1506651089016,466
1506651089024,468
1506651089033,466
1506651089041,466
1506651089049,464
1506651089057,462
1506651089066,460
1506651089074,454
1506651089082,452
1506651089090,448
1506651089098,443
1506651089107,442
1506651089115,439
1506651089123,442
1506651089131,448
1506651089139,461
1506651089147,486
1506651089156,515
1506651089163,555
1506651089172,599
1506651089176,644
1506651089184,692
1506651089193,733
1506651089201,769
1506651089209,795
1506651089217,811
1506651089225,819
1506651089234,814
1506651089241,801
1506651089249,778
1506651089258,747
1506651089266,714
1506651089274,675
1506651089282,637
1506651089291,598
1506651089299,559
1506651089307,526
1506651089315,492
1506651089323,465
1506651089331,441
1506651089339,420
1506651089343,405
1506651089352,389
1506651089360,380
1506651089368,376
1506651089376,376
1506651089384,381
1506651089393,387
1506651089401,399
1506651089409,412
1506651089417,428
1506651089426,446
1506651089434,463
1506651089442,484
1506651089450,501
1506651089459,514
1506651089466,530
1506651089475,537
1506651089484,543
1506651089491,545
1506651089499,544
1506651089503,541
1506651089512,533
1506651089520,525
1506651089529,513
1506651089537,499
1506651089545,488
1506651089553,472
1506651089561,460
1506651089570,448
1506651089578,436
1506651089586,428
1506651089594,419
1506651089602,414
1506651089610,409
1506651089619,405
1506651089626,405
1506651089635,402
1506651089643,404
1506651089651,405
1506651089659,407
1506651089663,413
1506651089671,415
1506651089680,420
1506651089688,423
1506651089697,427
1506651089704,433
1506651089713,436
1506651089721,441
1506651089729,446
1506651089737,449
1506651089745,455
1506651089753,457
1506651089761,458
1506651089769,461
1506651089778,460
1506651089787,462
1506651089795,461
1506651089803,462
1506651089811,460
1506651089819,459
1506651089823,459
1506651089831,456
1506651089839,454
1506651089847,453
1506651089856,450
1506651089864,452
1506651089872,456
1506651089880,468
1506651089889,488
1506651089897,514
1506651089905,553
1506651089913,595
1506651089921,644
1506651089929,692
1506651089937,735
1506651089945,776
1506651089954,804
1506651089962,825
1506651089970,838
1506651089978,837
1506651089982,829
1506651089991,810
1506651089999,784
1506651090008,753
1506651090016,716
1506651090024,680
1506651090033,640
1506651090041,602
1506651090049,568
1506651090057,533
1506651090065,507
1506651090074,480
1506651090081,459
1506651090090,442
1506651090098,426
1506651090106,416
1506651090114,404
1506651090122,399
1506651090130,397
1506651090138,395
1506651090143,402
1506651090151,407
1506651090159,418
1506651090167,432
1506651090176,445
1506651090184,462
1506651090192,475
1506651090200,491
1506651090208,505
1506651090216,515
1506651090224,526
1506651090233,530
1506651090241,533
1506651090249,533
1506651090257,528
1506651090265,524
1506651090274,515
1506651090282,506
1506651090290,496
1506651090298,483
1506651090302,472
1506651090310,458
1506651090319,449
1506651090327,440
1506651090335,429
1506651090343,424
1506651090351,417
1506651090359,412
1506651090368,410
1506651090376,408
1506651090384,408
1506651090392,408
1506651090400,411
1506651090408,414
1506651090417,416
1506651090425,422
1506651090433,424
1506651090441,429
1506651090449,435
1506651090457,439
1506651090461,445
1506651090470,448
1506651090479,452
1506651090487,456
1506651090495,458
1506651090503,462
1506651090512,463
1506651090520,465
1506651090528,467
1506651090536,465
1506651090544,467
1506651090553,465
1506651090561,464
1506651090569,463
1506651090577,459
1506651090585,458
1506651090594,455
1506651090602,452
1506651090609,451
1506651090617,448
1506651090622,451
1506651090630,453
1506651090638,464
1506651090646,484
1506651090654,510
1506651090662,547
1506651090670,590
1506651090679,638
1506651090687,688
1506651090695,734
1506651090704,776
1506651090711,808
1506651090720,833
1506651090728,847
1506651090736,848
1506651090744,842
1506651090752,825
1506651090761,800
1506651090768,771
1506651090777,735
1506651090781,699
1506651090790,660
1506651090798,623
1506651090806,588
1506651090814,553
1506651090823,525
1506651090831,498
1506651090839,476
1506651090847,459
1506651090855,442
1506651090863,431
1506651090871,419
1506651090879,410
1506651090888,405
1506651090896,402
1506651090904,404
1506651090912,406
1506651090920,413
1506651090929,424
1506651090937,432
1506651090941,446
1506651090949,458
1506651090957,471
1506651090965,485
1506651090974,494
1506651090982,504
1506651090990,511
1506651090999,515
1506651091007,519
1506651091015,516
1506651091023,515
1506651091031,510
1506651091039,503
1506651091047,496
1506651091055,485
1506651091064,478
1506651091072,468
1506651091080,458
1506651091088,449
1506651091097,439
1506651091101,433
1506651091109,425
1506651091117,419
1506651091125,417
1506651091134,412
1506651091142,412
1506651091150,410
1506651091158,411
1506651091166,413
1506651091174,413
1506651091182,417
1506651091191,419
1506651091199,422
1506651091207,427
1506651091215,429
1506651091223,435
1506651091233,437
1506651091241,441
1506651091249,446
1506651091257,448
1506651091261,453
1506651091269,456
1506651091277,458
1506651091285,462
1506651091294,462
1506651091302,464
1506651091310,463
1506651091318,462
1506651091326,464
1506651091335,460
1506651091343,461
1506651091351,458
1506651091359,456
1506651091367,456
1506651091375,452
1506651091384,450
1506651091392,447
1506651091400,444
1506651091408,443
1506651091416,439
1506651091424,441
1506651091429,443
1506651091437,452
1506651091445,470
1506651091453,493
1506651091461,528
1506651091469,572
1506651091478,619
1506651091486,670
1506651091494,716
1506651091502,760
1506651091510,794
1506651091519,819
1506651091527,835
1506651091535,838
1506651091544,833
1506651091552,818
1506651091560,792
1506651091568,765
1506651091576,728
1506651091584,692
1506651091588,654
1506651091598,615
1506651091605,581
1506651091614,546
1506651091621,518
1506651091630,491
1506651091638,469
1506651091646,452
1506651091654,435
1506651091662,424
1506651091671,413
1506651091678,405
1506651091687,402
1506651091695,398
1506651091703,401
1506651091711,405
1506651091719,411
1506651091727,423
1506651091735,433
1506651091744,447
1506651091748,461
1506651091757,475
1506651091765,490
1506651091773,501
1506651091781,512
1506651091790,519
1506651091798,523
1506651091806,527
1506651091814,526
1506651091821,525
1506651091829,519
1506651091838,510
1506651091846,504
1506651091854,493
1506651091863,483
1506651091871,472
1506651091879,460
1506651091887,452
1506651091896,441
1506651091904,433
1506651091908,425
1506651091916,419
1506651091924,415
1506651091933,410
1506651091940,410
1506651091948,409
1506651091957,408
1506651091965,411
1506651091973,410
1506651091981,414
1506651091989,417
1506651091998,419
1506651092006,425
1506651092014,427
1506651092022,432
1506651092030,436
1506651092038,438
1506651092047,445
1506651092055,446
1506651092063,450
1506651092067,453
1506651092076,455
1506651092084,459
1506651092093,460
1506651092100,461
1506651092108,463
1506651092116,462
1506651092125,463
1506651092134,461
1506651092142,461
1506651092150,460
1506651092159,457
1506651092166,458
1506651092174,454
1506651092182,452
1506651092191,451
1506651092199,448
1506651092206,447
1506651092214,442
1506651092222,440
1506651092227,437
1506651092235,434
1506651092244,435
1506651092252,433
1506651092261,439
1506651092269,451
1506651092277,471
1506651092285,504
1506651092295,541
1506651092301,587
1506651092309,636
1506651092318,684
1506651092327,731
1506651092334,769
1506651092343,800
1506651092351,822
1506651092359,831
1506651092367,832
1506651092375,819
1506651092383,799
1506651092387,772
1506651092395,737
1506651092403,701
1506651092413,660
1506651092420,620
1506651092428,580
1506651092436,541
1506651092445,510
1506651092453,478
1506651092461,453
1506651092469,433
1506651092477,415
1506651092485,403
1506651092495,391
1506651092502,383
1506651092510,379
1506651092519,378
1506651092526,383
1506651092535,387
1506651092543,398
1506651092547,412
1506651092555,424
1506651092563,443
1506651092571,459
1506651092580,477
1506651092588,494
1506651092596,508
1506651092604,522
1506651092613,530
1506651092620,537
1506651092629,541
1506651092637,540
1506651092645,539
1506651092653,532
1506651092661,524
1506651092669,515
1506651092678,501
1506651092686,491
1506651092694,477
1506651092702,466
1506651092706,456
1506651092714,445
1506651092723,436
1506651092731,427
1506651092739,421
1506651092747,416
1506651092755,410
1506651092763,410
1506651092772,408
1506651092780,408
1506651092788,411
1506651092797,412
1506651092805,416
1506651092813,417
1506651092821,422
1506651092829,426
1506651092837,428
1506651092845,434
1506651092854,436
1506651092861,439
1506651092866,445
1506651092874,447
1506651092882,452
1506651092890,453
1506651092899,457
1506651092908,460
1506651092915,460
1506651092924,464
1506651092932,464
1506651092940,464
1506651092948,465
1506651092956,464
1506651092965,465
1506651092973,462
1506651092981,462
1506651092989,460
1506651092997,456
1506651093006,455
1506651093014,450
1506651093022,446
1506651093027,444
1506651093034,440
1506651093042,441
1506651093051,441
1506651093059,448
1506651093067,462
1506651093075,484
1506651093083,517
1506651093092,557
1506651093100,604
1506651093108,655
1506651093116,700
1506651093124,745
1506651093132,780
1506651093140,806
1506651093148,823
1506651093157,827
1506651093166,822
1506651093173,805
1506651093182,781
1506651093186,751
1506651093194,713
1506651093202,675
1506651093211,634
1506651093219,593
1506651093227,557
1506651093235,519
1506651093243,490
1506651093251,461
1506651093260,437
1506651093268,419
1506651093276,403
1506651093284,391
1506651093293,381
1506651093301,375
1506651093308,373
1506651093317,374
1506651093325,382
1506651093333,392
1506651093341,405
1506651093345,422
1506651093354,439
1506651093362,458
1506651093370,475
1506651093378,493
1506651093386,511
1506651093395,523
1506651093403,536
1506651093411,543
1506651093419,548
1506651093427,550
1506651093436,546
1506651093444,541
1506651093452,532
1506651093460,522
1506651093468,512
1506651093476,498
1506651093485,487
1506651093493,473
1506651093501,460
1506651093509,450
1506651093514,438
1506651093522,430
1506651093530,422
1506651093538,415
1506651093546,411
1506651093554,406
1506651093562,406
1506651093571,404
1506651093579,405
1506651093587,408
1506651093595,409
1506651093604,414
1506651093612,417
1506651093620,419
1506651093629,425
1506651093637,428
1506651093645,433
1506651093653,436
1506651093661,441
1506651093669,445
1506651093673,447
1506651093682,453
1506651093690,455
1506651093698,458
1506651093706,462
1506651093714,463
1506651093722,466
1506651093730,467
1506651093738,467
1506651093747,469
1506651093755,467
1506651093763,468
1506651093772,466
1506651093780,465
1506651093788,465
1506651093796,461
1506651093804,461
1506651093812,457
1506651093820,455
1506651093828,455
1506651093833,451
1506651093840,451
1506651093849,449
1506651093857,449
1506651093865,457
1506651093873,467
1506651093881,489
1506651093890,518
1506651093898,556
1506651093907,605
1506651093915,653
1506651093923,704
1506651093931,751
1506651093940,790
1506651093948,824
1506651093956,845
1506651093964,857
1506651093973,856
1506651093980,845
1506651093988,826
1506651093993,797
1506651094001,763
1506651094009,725
1506651094017,683
1506651094025,644
1506651094033,601
1506651094041,563
1506651094049,527
1506651094058,496
1506651094066,471
1506651094074,447
1506651094082,430
1506651094090,414
1506651094099,402
1506651094107,396
1506651094115,390
1506651094123,390
1506651094132,392
1506651094140,397
1506651094148,407
1506651094153,418
1506651094160,433
1506651094169,448
1506651094177,463
1506651094185,481
1506651094194,495
1506651094202,509
1506651094209,521
1506651094218,528
1506651094226,537
1506651094234,540
1506651094242,541
1506651094250,539
1506651094258,533
1506651094267,527
1506651094275,516
1506651094283,507
1506651094291,496
1506651094300,483
1506651094308,473
1506651094313,461
1506651094320,451
1506651094328,443
1506651094336,434
1506651094345,429
1506651094353,422
1506651094361,419
1506651094369,415
1506651094377,413
1506651094385,415
1506651094394,412
1506651094402,414
1506651094410,416
1506651094418,417
1506651094426,422
1506651094435,424
1506651094443,427
1506651094451,431
1506651094459,432
1506651094467,438
1506651094471,440
1506651094479,446
1506651094488,448
1506651094496,449
1506651094504,454
1506651094513,454
1506651094520,457
1506651094528,460
1506651094536,461
1506651094545,463
1506651094553,464
1506651094561,466
1506651094569,466
1506651094577,464
1506651094586,466
1506651094594,464
1506651094602,463
1506651094610,462
1506651094618,458
1506651094626,458
1506651094631,455
1506651094639,453
1506651094647,451
1506651094655,448
1506651094663,447
1506651094672,443
1506651094680,442
1506651094688,442
1506651094697,443
1506651094705,453
1506651094713,467
1506651094721,491
1506651094729,525
1506651094737,566
1506651094745,615
1506651094754,664
1506651094763,713
1506651094770,756
1506651094779,790
1506651094787,818
1506651094792,832
1506651094800,836
1506651094808,830
1506651094815,813
1506651094824,790
1506651094832,758
1506651094840,722
1506651094850,684
1506651094858,641
1506651094866,600
1506651094874,557
1506651094882,520
1506651094890,486
1506651094898,455
1506651094906,432
1506651094914,410
1506651094922,393
1506651094930,381
1506651094938,369
1506651094946,365
1506651094950,360
1506651094959,362
1506651094967,366
1506651094975,373
1506651094983,386
1506651094992,398
1506651095000,414
1506651095008,432
1506651095017,446
1506651095025,464
1506651095034,479
1506651095042,492
1506651095049,504
1506651095057,511
1506651095065,519
1506651095073,519
1506651095083,520
1506651095091,518
1506651095099,512
1506651095107,508
1506651095110,499
1506651095119,488
1506651095127,479
1506651095135,467
1506651095143,458
1506651095151,446
1506651095160,436
1506651095168,427
1506651095176,418
1506651095184,413
1506651095193,406
1506651095201,402
1506651095209,400
1506651095218,398
1506651095226,399
1506651095234,399
1506651095242,400
1506651095250,402
1506651095258,404
1506651095266,408
1506651095274,409
1506651095279,413
1506651095287,417
1506651095295,419
1506651095303,425
1506651095311,426
1506651095320,430
1506651095328,434
1506651095336,436
1506651095344,440
1506651095352,442
1506651095360,444
1506651095369,447
1506651095377,448
1506651095385,451
1506651095393,450
1506651095401,450
1506651095410,450
1506651095418,448
1506651095426,448
1506651095434,445
1506651095439,443
1506651095447,442
1506651095455,439
1506651095463,437
1506651095471,434
1506651095479,432
1506651095487,430
1506651095496,426
1506651095504,426
1506651095513,424
1506651095520,425
1506651095529,432
1506651095537,444
1506651095545,466
1506651095553,496
1506651095561,534
1506651095570,580
1506651095578,627
1506651095586,676
1506651095594,718
1506651095599,755
1506651095606,785
1506651095615,802
1506651095623,811
1506651095631,808
1506651095639,795
1506651095647,774
1506651095655,745
1506651095663,712
1506651095672,674
1506651095680,634
1506651095688,595
1506651095697,555
1506651095705,521
1506651095713,486
1506651095721,457
1506651095729,433
1506651095737,412
1506651095746,395
1506651095753,382
1506651095757,372
1506651095766,366
1506651095774,362
1506651095782,365
1506651095790,370
1506651095799,378
1506651095807,393
1506651095815,406
1506651095823,425
1506651095831,442
1506651095839,460
1506651095848,479
1506651095856,495
1506651095864,511
1506651095873,521
1506651095880,530
1506651095888,536
1506651095897,536
1506651095905,537
1506651095914,531
1506651095918,525
1506651095926,519
1506651095934,507
1506651095943,496
1506651095951,483
1506651095959,471
1506651095967,461
1506651095975,449
1506651095983,441
1506651095991,431
1506651096000,424
1506651096008,419
1506651096016,411
1506651096024,409
1506651096033,406
1506651096040,404
1506651096048,406
1506651096056,405
1506651096064,407
1506651096072,409
1506651096077,411
1506651096086,416
1506651096094,417
1506651096102,423
1506651096110,425
1506651096118,428
1506651096126,433
1506651096135,436
1506651096143,441
1506651096151,444
1506651096159,448
1506651096167,452
1506651096175,453
1506651096184,458
1506651096192,459
1506651096200,461
1506651096208,462
1506651096217,461
1506651096225,461
1506651096233,459
1506651096237,457
1506651096245,456
1506651096254,452
1506651096262,451
1506651096270,448
