time,value
1506653328159,374
1506653328167,378
1506653328176,383
1506653328184,385
1506653328192,401
1506653328200,413
1506653328209,439
1506653328217,473
1506653328226,508
1506653328234,559
1506653328242,604
1506653328250,657
1506653328254,709
1506653328262,750
1506653328271,796
1506653328279,823
1506653328287,846
1506653328295,861
1506653328304,860
1506653328312,859
1506653328320,842
1506653328328,822
1506653328336,799
1506653328344,764
1506653328353,737
1506653328361,701
1506653328369,668
1506653328377,638
1506653328385,603
1506653328393,579
1506653328402,549
1506653328410,527
1506653328418,506
1506653328422,482
1506653328430,469
1506653328438,449
1506653328447,438
1506653328454,429
1506653328463,417
1506653328471,417
1506653328479,408
1506653328487,409
1506653328495,413
1506653328503,412
1506653328511,421
1506653328520,424
1506653328528,431
1506653328536,440
1506653328544,443
1506653328553,455
1506653328561,456
1506653328569,461
1506653328577,466
1506653328581,462
1506653328590,468
1506653328598,462
1506653328606,459
1506653328614,457
1506653328622,447
1506653328631,446
1506653328639,437
1506653328647,431
1506653328655,427
1506653328663,417
1506653328672,417
1506653328679,409
1506653328687,405
1506653328696,404
1506653328704,397
1506653328712,400
1506653328720,396
1506653328729,396
1506653328737,398
1506653328742,393
1506653328750,400
1506653328758,396
1506653328766,398
1506653328774,402
1506653328783,398
1506653328791,405
1506653328799,403
1506653328807,404
1506653328815,407
1506653328823,402
1506653328832,408
1506653328840,406
1506653328848,406
1506653328856,409
1506653328864,405
1506653328872,410
1506653328881,407
1506653328889,406
1506653328897,409
1506653328901,404
1506653328909,408
1506653328918,404
1506653328926,403
1506653328934,405
1506653328942,399
1506653328950,402
1506653328959,397
1506653328967,397
1506653328975,397
1506653328983,393
1506653328991,400
1506653329000,403
1506653329008,413
1506653329016,433
1506653329024,453
1506653329032,489
1506653329041,526
1506653329049,570
1506653329056,621
1506653329061,667
1506653329069,720
1506653329077,762
1506653329086,799
1506653329094,832
1506653329102,848
1506653329110,862
1506653329118,861
1506653329126,853
1506653329134,840
1506653329142,815
1506653329150,793
1506653329158,760
1506653329167,728
1506653329175,699
1506653329183,661
1506653329191,635
1506653329199,605
1506653329207,576
1506653329215,555
1506653329220,529
1506653329228,512
1506653329236,492
1506653329245,476
1506653329253,465
1506653329261,450
1506653329269,447
1506653329277,439
1506653329286,435
1506653329294,437
1506653329302,433
1506653329310,439
1506653329318,441
1506653329326,446
1506653329335,454
1506653329343,457
1506653329351,467
1506653329359,470
1506653329368,474
1506653329375,480
1506653329380,478
1506653329388,483
1506653329396,481
1506653329405,479
1506653329413,478
1506653329421,469
1506653329430,467
1506653329438,458
1506653329446,451
1506653329453,448
1506653329462,436
1506653329470,435
1506653329478,427
1506653329486,420
1506653329494,419
1506653329503,411
1506653329512,411
1506653329520,406
1506653329528,403
1506653329536,405
1506653329541,399
1506653329548,402
1506653329557,401
1506653329565,399
1506653329573,403
1506653329581,401
1506653329589,405
1506653329597,404
1506653329605,405
1506653329613,409
1506653329622,405
1506653329630,411
1506653329638,410
1506653329646,409
1506653329654,414
1506653329662,410
1506653329670,413
1506653329678,412
1506653329687,411
1506653329695,415
1506653329699,410
1506653329707,415
1506653329715,413
1506653329724,411
1506653329733,414
1506653329741,407
1506653329748,411
1506653329757,407
1506653329765,403
1506653329773,406
1506653329781,401
1506653329789,406
1506653329797,409
1506653329806,418
1506653329815,438
1506653329823,455
1506653329831,489
1506653329839,524
1506653329847,563
1506653329855,613
1506653329859,657
1506653329867,705
1506653329876,748
1506653329885,783
1506653329893,816
1506653329901,834
1506653329909,850
1506653329917,853
1506653329926,846
1506653329934,837
1506653329942,814
1506653329950,791
1506653329958,763
1506653329966,731
1506653329974,703
1506653329982,667
1506653329991,639
1506653329999,609
1506653330007,580
1506653330015,560
1506653330019,533
1506653330027,515
1506653330036,495
1506653330044,476
1506653330052,466
1506653330061,450
1506653330070,444
1506653330078,438
1506653330085,432
1506653330094,434
1506653330102,431
1506653330110,437
1506653330118,442
1506653330126,446
1506653330134,458
1506653330142,460
1506653330150,470
1506653330158,476
1506653330167,478
1506653330175,485
1506653330179,485
1506653330187,489
1506653330196,488
1506653330204,484
1506653330212,485
1506653330220,477
1506653330228,475
1506653330237,469
1506653330244,461
1506653330254,458
1506653330262,448
1506653330269,443
1506653330278,437
1506653330286,429
1506653330294,429
1506653330302,420
1506653330310,420
1506653330318,417
1506653330326,412
1506653330335,415
1506653330343,408
1506653330347,409
1506653330355,409
1506653330363,405
1506653330371,409
1506653330379,405
1506653330388,407
1506653330396,407
1506653330404,405
1506653330413,411
1506653330421,406
1506653330429,411
1506653330438,412
1506653330446,409
1506653330453,414
1506653330462,412
1506653330469,413
1506653330478,415
1506653330486,413
1506653330494,417
1506653330502,414
1506653330507,416
1506653330515,416
1506653330523,413
1506653330531,416
1506653330540,412
1506653330548,413
1506653330556,412
1506653330564,409
1506653330573,413
1506653330581,410
1506653330589,417
1506653330598,425
1506653330605,437
1506653330613,462
1506653330622,486
1506653330631,522
1506653330638,562
1506653330646,602
1506653330654,651
1506653330662,692
1506653330666,735
1506653330675,772
1506653330683,799
1506653330691,825
1506653330699,835
1506653330707,843
1506653330715,841
1506653330724,828
1506653330732,817
1506653330740,792
1506653330748,768
1506653330757,740
1506653330765,707
1506653330774,681
1506653330781,648
1506653330789,622
1506653330797,596
1506653330806,569
1506653330814,550
1506653330822,525
1506653330826,508
1506653330835,493
1506653330843,475
1506653330851,471
1506653330859,461
1506653330867,456
1506653330875,455
1506653330883,451
1506653330892,455
1506653330900,455
1506653330908,461
1506653330916,467
1506653330924,470
1506653330933,484
1506653330941,487
1506653330949,496
1506653330958,504
1506653330967,504
1506653330975,510
1506653330983,508
1506653330986,509
1506653330994,506
1506653331002,500
1506653331010,499
1506653331018,490
1506653331027,486
1506653331035,482
1506653331044,471
1506653331052,471
1506653331060,461
1506653331068,455
1506653331076,449
1506653331084,439
1506653331092,439
1506653331101,431
1506653331109,428
1506653331117,426
1506653331126,420
1506653331134,424
1506653331143,419
1506653331146,420
1506653331153,422
1506653331161,420
1506653331170,423
1506653331179,422
1506653331187,424
1506653331195,425
1506653331203,423
1506653331211,430
1506653331219,430
1506653331228,433
1506653331236,436
1506653331244,433
1506653331252,438
1506653331260,435
1506653331268,435
1506653331276,434
1506653331285,431
1506653331293,435
1506653331301,433
1506653331305,434
1506653331313,436
1506653331321,442
1506653331330,455
1506653331338,460
1506653331346,474
1506653331354,495
1506653331362,515
1506653331370,548
1506653331378,575
1506653331387,615
1506653331395,659
1506653331403,694
1506653331411,737
1506653331420,771
1506653331428,805
1506653331436,833
1506653331445,845
1506653331452,858
1506653331460,857
1506653331464,850
1506653331473,838
1506653331481,816
1506653331489,796
1506653331497,765
1506653331506,736
1506653331514,706
1506653331522,671
1506653331530,645
1506653331539,612
1506653331547,584
1506653331554,560
1506653331562,531
1506653331571,512
1506653331579,487
1506653331587,470
1506653331595,454
1506653331603,439
1506653331612,433
1506653331619,423
1506653331624,420
1506653331633,421
1506653331641,418
1506653331649,426
1506653331657,429
1506653331665,433
1506653331673,443
1506653331681,447
1506653331690,457
1506653331698,460
1506653331706,467
1506653331714,474
1506653331723,473
1506653331731,480
1506653331739,478
1506653331747,476
1506653331756,477
1506653331764,471
1506653331772,471
1506653331780,464
1506653331785,460
1506653331793,457
1506653331801,447
1506653331809,446
1506653331817,438
1506653331826,433
1506653331834,430
1506653331842,423
1506653331850,422
1506653331858,416
1506653331867,412
1506653331875,411
1506653331883,406
1506653331891,408
1506653331899,404
1506653331907,404
1506653331916,407
1506653331924,404
1506653331932,409
1506653331940,407
1506653331944,406
1506653331953,410
1506653331961,408
1506653331969,413
1506653331977,412
1506653331985,413
1506653331993,416
1506653332001,416
1506653332010,421
1506653332018,421
1506653332026,423
1506653332034,432
1506653332043,440
1506653332051,459
1506653332059,480
1506653332067,508
1506653332075,545
1506653332083,579
1506653332092,623
1506653332100,662
1506653332108,700
1506653332112,738
1506653332120,763
1506653332128,789
1506653332136,802
1506653332145,808
1506653332153,811
1506653332161,799
1506653332169,788
1506653332177,768
1506653332186,744
1506653332194,721
1506653332202,690
1506653332210,665
1506653332218,636
1506653332226,607
1506653332235,584
1506653332243,555
1506653332251,535
1506653332259,513
1506653332267,495
1506653332271,481
1506653332280,464
1506653332288,455
1506653332296,444
1506653332304,435
1506653332312,433
1506653332320,425
1506653332328,428
1506653332338,426
1506653332346,426
1506653332354,433
1506653332362,434
1506653332370,442
1506653332378,447
1506653332386,451
1506653332395,462
1506653332403,465
1506653332411,476
1506653332419,476
1506653332427,473
1506653332432,479
1506653332440,473
1506653332449,470
1506653332457,468
1506653332465,461
1506653332473,454
1506653332481,442
1506653332489,438
1506653332497,430
1506653332506,423
1506653332513,421
1506653332522,412
1506653332530,412
1506653332538,407
1506653332546,404
1506653332555,405
1506653332563,400
1506653332571,403
1506653332579,402
1506653332587,401
1506653332591,405
1506653332601,401
1506653332608,406
1506653332617,405
1506653332624,405
1506653332633,409
1506653332641,406
1506653332649,409
1506653332657,408
1506653332665,407
1506653332673,414
1506653332681,414
1506653332689,414
1506653332698,411
1506653332706,414
1506653332714,424
1506653332722,425
1506653332730,440
1506653332739,458
1506653332747,482
1506653332751,517
1506653332760,549
1506653332768,591
1506653332776,630
1506653332784,669
1506653332792,709
1506653332800,737
1506653332809,769
1506653332817,788
1506653332825,793
1506653332833,801
1506653332842,794
1506653332848,782
1506653332858,761
1506653332866,736
1506653332874,714
1506653332882,682
1506653332890,657
1506653332898,628
1506653332906,599
1506653332911,577
1506653332919,549
1506653332927,531
1506653332936,510
1506653332943,490
1506653332952,477
1506653332961,459
1506653332969,450
1506653332977,441
1506653332984,432
1506653332993,431
1506653333001,425
1506653333009,428
1506653333017,429
1506653333026,431
1506653333034,440
1506653333042,443
1506653333050,453
1506653333058,461
1506653333066,465
1506653333070,475
1506653333078,476
1506653333087,483
1506653333095,484
1506653333104,482
1506653333112,486
1506653333120,479
1506653333129,479
1506653333137,473
1506653333145,466
1506653333152,463
1506653333160,454
1506653333169,449
1506653333176,443
1506653333185,434
1506653333193,432
1506653333201,423
1506653333210,422
1506653333218,420
1506653333226,415
1506653333231,417
1506653333239,412
1506653333247,414
1506653333254,412
1506653333263,410
1506653333271,414
1506653333279,410
1506653333287,413
1506653333295,413
1506653333305,410
1506653333313,415
1506653333321,410
1506653333329,412
1506653333337,413
1506653333346,411
1506653333353,416
1506653333361,416
1506653333369,427
1506653333378,439
1506653333386,455
1506653333390,482
1506653333398,508
1506653333406,543
1506653333415,582
1506653333423,618
1506653333431,660
1506653333439,692
1506653333448,724
1506653333456,749
1506653333464,764
1506653333472,779
1506653333481,778
1506653333490,776
1506653333498,766
1506653333505,747
1506653333514,730
1506653333521,703
1506653333530,679
1506653333538,652
1506653333546,623
1506653333549,603
1506653333558,574
1506653333566,555
1506653333574,533
1506653333582,509
1506653333590,495
1506653333598,475
1506653333607,462
1506653333615,451
1506653333623,439
1506653333631,436
1506653333640,429
1506653333648,431
1506653333656,433
1506653333664,435
1506653333673,446
1506653333681,448
1506653333689,454
1506653333697,462
1506653333705,465
1506653333713,475
1506653333717,477
1506653333725,483
1506653333734,485
1506653333742,484
1506653333750,487
1506653333758,481
1506653333767,480
1506653333775,477
1506653333783,470
1506653333791,472
1506653333799,466
1506653333808,460
1506653333816,458
1506653333824,447
1506653333832,444
1506653333841,436
1506653333849,436
1506653333858,434
1506653333867,429
1506653333873,431
1506653333878,425
1506653333886,424
1506653333894,420
1506653333902,412
1506653333910,413
1506653333919,409
1506653333927,409
1506653333935,415
1506653333943,411
1506653333951,411
1506653333960,404
1506653333968,405
1506653333976,406
1506653333984,403
1506653333992,410
1506653334000,413
1506653334009,425
1506653334018,443
1506653334025,463
1506653334033,495
1506653334037,525
1506653334045,563
1506653334054,602
1506653334062,638
1506653334070,680
1506653334078,710
1506653334086,739
1506653334094,763
1506653334103,773
1506653334111,783
1506653334119,781
1506653334127,773
1506653334135,762
1506653334144,741
1506653334152,723
1506653334160,696
1506653334168,672
1506653334176,648
1506653334184,619
1506653334192,600
1506653334197,573
1506653334205,552
1506653334213,535
1506653334221,512
1506653334229,500
1506653334238,482
1506653334247,469
1506653334254,461
1506653334262,449
1506653334270,446
1506653334278,438
1506653334287,437
1506653334295,439
1506653334303,436
1506653334311,443
1506653334319,445
1506653334327,450
1506653334336,458
1506653334344,460
1506653334352,469
1506653334356,470
1506653334364,474
1506653334372,479
1506653334381,475
1506653334389,479
1506653334397,474
1506653334405,471
1506653334413,469
1506653334422,460
1506653334430,459
1506653334438,451
1506653334447,445
1506653334454,442
1506653334462,432
1506653334471,431
1506653334479,424
1506653334487,420
1506653334495,420
1506653334503,414
1506653334511,415
1506653334516,412
1506653334524,412
1506653334532,413
1506653334541,409
1506653334549,414
1506653334557,412
1506653334565,412
1506653334573,415
1506653334581,413
1506653334589,417
1506653334598,415
1506653334606,416
1506653334614,417
1506653334622,413
1506653334630,416
1506653334639,413
1506653334647,415
1506653334655,418
1506653334663,420
1506653334671,434
1506653334675,448
1506653334684,469
1506653334692,499
1506653334700,527
1506653334708,566
1506653334716,603
1506653334725,641
1506653334733,679
1506653334741,708
1506653334750,739
1506653334757,756
1506653334766,769
1506653334774,777
1506653334782,772
1506653334790,767
1506653334798,751
1506653334807,734
1506653334815,715
1506653334823,689
1506653334831,669
1506653334836,641
1506653334844,618
1506653334852,597
1506653334860,572
1506653334868,557
1506653334876,535
1506653334884,517
1506653334893,505
1506653334901,487
1506653334909,478
1506653334917,465
1506653334926,459
1506653334934,462
1506653334942,456
1506653334951,456
1506653334959,454
1506653334967,454
1506653334975,459
1506653334983,462
1506653334991,467
1506653334995,471
1506653335003,473
1506653335012,476
1506653335020,473
1506653335028,479
1506653335037,478
1506653335045,477
1506653335052,480
1506653335060,474
1506653335069,477
1506653335077,472
1506653335086,467
1506653335093,467
1506653335102,458
1506653335110,456
1506653335119,451
1506653335127,445
1506653335135,441
1506653335143,431
1506653335151,430
1506653335156,425
1506653335164,421
1506653335172,422
1506653335180,417
1506653335188,419
1506653335196,417
1506653335204,416
1506653335213,419
1506653335221,416
1506653335229,421
1506653335238,421
1506653335246,421
1506653335254,425
1506653335262,421
1506653335270,426
1506653335279,424
1506653335287,422
1506653335295,425
1506653335303,420
1506653335311,422
1506653335316,420
1506653335324,418
1506653335332,420
1506653335340,418
1506653335348,429
1506653335356,434
1506653335365,445
1506653335373,464
1506653335381,481
1506653335389,513
1506653335397,545
1506653335405,581
1506653335413,622
1506653335421,656
1506653335430,693
1506653335438,722
1506653335446,745
1506653335454,765
1506653335462,771
1506653335470,778
1506653335474,773
1506653335484,761
1506653335491,751
1506653335500,728
1506653335507,711
1506653335516,686
1506653335524,660
1506653335532,639
1506653335541,611
1506653335549,593
1506653335557,570
1506653335565,548
1506653335573,534
1506653335581,512
1506653335590,500
1506653335598,486
1506653335606,471
1506653335614,465
1506653335622,454
1506653335630,452
1506653335638,447
1506653335643,445
1506653335652,449
1506653335660,447
1506653335667,455
1506653335676,458
1506653335684,461
1506653335692,470
1506653335700,471
1506653335708,478
1506653335716,481
1506653335724,482
1506653335733,488
1506653335741,482
1506653335749,484
1506653335757,480
1506653335766,475
1506653335774,474
1506653335782,465
1506653335790,462
1506653335798,456
1506653335803,448
1506653335811,446
1506653335820,437
1506653335828,435
1506653335836,431
1506653335844,426
1506653335853,427
1506653335860,421
1506653335869,423
1506653335877,420
1506653335885,418
1506653335893,422
1506653335901,417
1506653335909,420
1506653335917,420
1506653335925,418
1506653335933,423
1506653335942,420
1506653335950,424
1506653335958,424
1506653335962,423
1506653335970,429
1506653335979,424
1506653335987,427
1506653335995,426
1506653336003,423
1506653336012,427
1506653336020,421
1506653336027,422
1506653336036,420
1506653336045,418
1506653336052,421
1506653336060,419
1506653336068,429
1506653336076,437
1506653336084,449
1506653336093,475
1506653336102,498
1506653336110,531
1506653336118,568
1506653336122,604
1506653336130,646
1506653336139,678
1506653336147,714
1506653336154,741
1506653336163,758
1506653336170,777
1506653336179,779
1506653336188,780
1506653336197,773
1506653336205,757
1506653336213,745
1506653336221,721
1506653336229,701
1506653336237,677
1506653336245,650
1506653336253,630
1506653336261,602
1506653336269,583
1506653336277,564
1506653336282,542
1506653336290,531
1506653336298,510
1506653336306,497
1506653336314,485
1506653336322,471
1506653336331,466
1506653336339,456
1506653336348,455
1506653336355,452
1506653336363,449
1506653336373,455
1506653336381,454
1506653336389,460
1506653336396,465
1506653336406,467
1506653336412,476
1506653336421,478
1506653336429,483
1506653336437,486
1506653336442,485
1506653336450,490
1506653336457,485
1506653336466,486
1506653336474,483
1506653336482,475
1506653336490,475
1506653336498,466
1506653336507,462
1506653336515,457
1506653336523,449
1506653336531,447
1506653336541,440
1506653336548,436
1506653336556,433
1506653336565,428
1506653336573,429
1506653336580,423
1506653336589,424
1506653336596,424
1506653336600,419
1506653336609,423
1506653336617,419
1506653336625,421
1506653336633,422
1506653336642,420
1506653336650,425
1506653336658,421
1506653336666,424
1506653336674,424
1506653336682,421
1506653336691,427
1506653336699,424
1506653336707,425
1506653336715,427
1506653336723,425
1506653336731,429
1506653336740,424
1506653336748,425
1506653336756,425
1506653336760,421
1506653336768,425
1506653336776,420
1506653336785,421
1506653336793,420
1506653336801,416
1506653336810,420
1506653336818,418
1506653336826,423
1506653336834,432
1506653336843,442
1506653336851,464
1506653336859,485
1506653336867,516
1506653336875,552
1506653336883,586
1506653336892,629
1506653336901,664
1506653336909,700
1506653336917,733
1506653336920,754
1506653336928,775
1506653336937,782
1506653336946,784
1506653336953,782
1506653336961,766
1506653336969,755
1506653336978,733
1506653336986,713
1506653336995,690
1506653337003,662
1506653337011,642
1506653337019,615
1506653337027,594
1506653337035,575
1506653337044,552
1506653337051,539
1506653337060,520
1506653337068,507
1506653337076,496
1506653337084,481
1506653337089,477
1506653337097,466
1506653337105,462
1506653337113,460
1506653337122,455
1506653337130,460
1506653337138,458
1506653337146,462
1506653337154,468
1506653337162,470
1506653337170,479
1506653337178,481
1506653337187,487
1506653337195,492
1506653337203,491
1506653337211,496
1506653337219,494
1506653337228,493
1506653337236,493
1506653337244,485
1506653337248,485
1506653337257,477
1506653337265,471
1506653337273,468
1506653337281,457
1506653337289,456
1506653337298,448
1506653337306,443
1506653337314,440
1506653337322,432
1506653337330,432
1506653337339,427
1506653337347,425
1506653337355,425
1506653337363,421
1506653337371,424
1506653337379,422
1506653337388,421
1506653337396,424
1506653337403,421
1506653337408,426
1506653337416,423
1506653337424,424
1506653337432,427
1506653337441,423
1506653337449,428
1506653337457,427
1506653337466,427
1506653337474,429
1506653337482,426
1506653337490,430
1506653337498,427
1506653337507,427
1506653337515,429
1506653337523,425
1506653337531,429
1506653337539,427
1506653337547,425
1506653337555,426
1506653337563,422
1506653337567,425
1506653337575,421
1506653337584,420
1506653337592,421
1506653337600,419
1506653337608,426
1506653337616,431
1506653337625,442
1506653337633,461
1506653337641,480
1506653337650,514
1506653337658,553
1506653337666,591
1506653337674,632
1506653337682,667
1506653337691,707
1506653337699,738
1506653337707,762
1506653337715,784
1506653337723,789
1506653337728,792
1506653337735,784
1506653337744,771
1506653337752,758
1506653337760,734
1506653337768,715
1506653337776,689
1506653337784,663
1506653337792,641
1506653337801,615
1506653337809,596
1506653337817,573
1506653337825,554
1506653337833,540
1506653337842,520
1506653337851,510
1506653337858,497
1506653337866,485
1506653337875,477
1506653337882,466
1506653337887,464
1506653337895,459
1506653337903,459
1506653337911,464
1506653337919,461
1506653337928,467
1506653337936,469
1506653337945,473
1506653337952,482
1506653337961,482
1506653337968,491
1506653337977,497
1506653337985,503
1506653337994,508
1506653338002,503
1506653338010,507
1506653338019,505
1506653338026,500
1506653338035,500
1506653338043,489
1506653338048,485
1506653338055,477
1506653338063,465
1506653338072,460
1506653338080,445
1506653338088,437
1506653338096,428
1506653338104,422
1506653338112,419
1506653338120,413
1506653338129,415
1506653338138,413
1506653338146,412
1506653338154,416
1506653338162,414
1506653338170,418
1506653338178,419
1506653338186,420
1506653338194,426
1506653338203,425
1506653338208,430
1506653338215,431
1506653338223,431
1506653338231,435
1506653338239,431
1506653338248,436
1506653338256,435
1506653338264,434
1506653338272,436
1506653338280,432
1506653338288,434
1506653338296,432
1506653338305,429
1506653338313,431
1506653338321,427
1506653338329,428
1506653338338,425
1506653338346,422
1506653338353,426
1506653338363,423
1506653338367,429
1506653338376,437
1506653338383,449
1506653338392,473
1506653338399,495
1506653338408,528
1506653338415,562
1506653338424,597
1506653338432,638
1506653338440,671
1506653338449,707
1506653338456,736
1506653338464,756
1506653338472,776
1506653338481,780
1506653338489,783
1506653338497,777
1506653338506,763
1506653338513,750
1506653338521,725
1506653338526,706
1506653338535,680
1506653338543,653
1506653338552,633
1506653338559,605
1506653338568,585
1506653338575,564
1506653338583,543
1506653338591,529
1506653338599,509
1506653338607,499
1506653338616,486
1506653338624,473
1506653338632,468
1506653338640,457
1506653338649,456
1506653338656,453
1506653338665,450
1506653338673,455
1506653338681,454
1506653338685,460
1506653338694,464
1506653338701,468
1506653338710,477
1506653338719,478
1506653338728,486
1506653338735,490
1506653338743,490
1506653338751,495
1506653338759,491
1506653338768,491
1506653338776,489
1506653338784,482
1506653338792,481
1506653338801,471
1506653338809,468
1506653338817,461
1506653338825,452
1506653338833,450
1506653338841,440
1506653338846,438
1506653338853,434
1506653338861,428
1506653338870,429
1506653338878,423
1506653338886,424
1506653338894,423
1506653338902,421
1506653338911,424
1506653338919,420
1506653338927,424
1506653338935,424
1506653338944,422
1506653338952,427
1506653338960,423
1506653338968,427
1506653338977,427
1506653338985,425
1506653338993,428
1506653339001,425
1506653339009,427
1506653339013,429
1506653339022,427
1506653339030,430
1506653339038,427
1506653339046,428
1506653339054,428
1506653339062,424
1506653339070,428
1506653339078,423
1506653339087,425
1506653339095,425
1506653339103,421
1506653339111,424
1506653339119,419
1506653339127,421
1506653339136,421
1506653339145,417
1506653339153,420
1506653339160,418
1506653339168,420
1506653339173,427
1506653339181,433
1506653339189,452
1506653339197,468
1506653339206,496
1506653339214,528
1506653339222,563
1506653339230,607
1506653339239,645
1506653339247,687
1506653339255,725
1506653339263,753
1506653339272,783
1506653339280,798
1506653339288,810
1506653339296,815
1506653339304,808
1506653339312,801
1506653339320,782
1506653339328,765
1506653339333,743
1506653339341,715
1506653339349,695
1506653339358,666
1506653339366,643
1506653339374,621
1506653339382,597
1506653339390,581
1506653339398,561
1506653339407,547
1506653339415,533
1506653339424,516
1506653339432,509
1506653339441,494
1506653339449,486
1506653339456,479
1506653339464,468
1506653339472,467
1506653339480,461
1506653339488,461
1506653339492,462
1506653339501,461
1506653339509,467
1506653339517,467
1506653339525,472
1506653339534,478
1506653339542,478
1506653339550,485
1506653339558,483
1506653339566,486
1506653339574,487
1506653339582,482
1506653339590,483
1506653339599,478
1506653339607,476
1506653339616,471
1506653339623,463
1506653339632,462
1506653339640,454
1506653339648,450
1506653339652,447
1506653339661,437
1506653339669,437
1506653339677,430
1506653339685,428
1506653339694,427
1506653339702,422
1506653339710,425
1506653339718,421
1506653339727,422
1506653339735,423
1506653339743,420
1506653339751,424
1506653339759,421
1506653339768,422
1506653339776,423
1506653339784,420
1506653339793,424
1506653339801,422
1506653339808,424
1506653339812,426
1506653339820,423
1506653339829,428
1506653339837,425
1506653339845,427
1506653339854,428
1506653339862,424
1506653339870,429
1506653339878,425
1506653339886,425
1506653339894,426
1506653339902,421
1506653339910,423
1506653339919,418
1506653339927,418
1506653339935,419
1506653339943,414
1506653339951,419
1506653339960,420
1506653339968,427
1506653339972,442
1506653339980,457
1506653339988,484
1506653339996,511
1506653340005,547
1506653340013,588
1506653340021,624
1506653340029,669
1506653340037,704
1506653340046,739
1506653340054,767
1506653340062,785
1506653340070,801
1506653340078,804
1506653340086,802
1506653340094,796
1506653340103,779
1506653340111,764
1506653340119,739
1506653340127,716
1506653340131,694
1506653340140,665
1506653340148,646
1506653340155,621
1506653340164,600
1506653340172,583
1506653340180,561
1506653340188,549
1506653340196,531
1506653340204,518
1506653340213,507
1506653340221,493
1506653340229,487
1506653340237,475
1506653340246,469
1506653340254,466
1506653340262,457
1506653340270,460
1506653340278,459
1506653340286,459
1506653340290,464
1506653340299,463
1506653340307,470
1506653340315,471
1506653340323,475
1506653340331,481
1506653340340,480
1506653340348,487
1506653340356,485
1506653340364,484
1506653340372,486
1506653340380,480
1506653340389,480
1506653340397,474
1506653340405,469
1506653340413,466
1506653340421,456
1506653340430,453
1506653340438,445
1506653340447,441
1506653340451,440
1506653340459,432
1506653340468,433
1506653340476,428
1506653340484,426
1506653340492,427
1506653340500,422
1506653340508,426
1506653340517,423
1506653340525,424
1506653340533,427
1506653340541,423
1506653340549,427
1506653340558,425
1506653340566,425
1506653340574,429
1506653340582,426
1506653340591,430
1506653340599,429
1506653340607,428
1506653340611,432
1506653340619,427
1506653340628,431
1506653340636,429
1506653340644,429
1506653340652,431
1506653340660,426
1506653340668,428
1506653340676,426
1506653340685,424
1506653340693,425
1506653340701,419
1506653340709,422
1506653340717,419
1506653340726,417
1506653340733,423
1506653340742,422
1506653340750,433
1506653340759,444
1506653340766,461
1506653340771,487
1506653340779,512
1506653340787,549
1506653340795,585
1506653340803,624
1506653340812,666
1506653340820,699
1506653340828,734
1506653340836,759
1506653340845,778
1506653340853,793
1506653340860,795
1506653340868,796
1506653340877,785
1506653340885,770
1506653340893,756
1506653340901,730
1506653340910,710
1506653340918,685
1506653340927,658
1506653340934,639
1506653340939,612
1506653340947,595
1506653340955,575
1506653340963,556
1506653340971,542
1506653340979,524
1506653340987,514
1506653340995,499
1506653341004,489
1506653341012,482
1506653341020,469
1506653341028,466
1506653341036,460
1506653341045,456
1506653341053,458
1506653341062,454
1506653341070,460
1506653341078,461
1506653341086,464
1506653341094,472
1506653341099,472
1506653341107,480
1506653341115,482
1506653341123,484
1506653341131,489
1506653341139,486
1506653341148,489
1506653341156,486
1506653341164,482
1506653341172,483
1506653341180,474
1506653341189,472
1506653341197,466
1506653341205,459
1506653341213,458
1506653341221,449
1506653341229,447
1506653341238,442
1506653341246,436
1506653341253,436
1506653341258,429
1506653341266,430
1506653341274,428
1506653341282,425
1506653341290,427
1506653341298,422
1506653341307,425
1506653341316,424
1506653341324,422
1506653341332,426
1506653341340,422
1506653341348,425
1506653341357,424
1506653341365,425
1506653341373,429
1506653341381,425
1506653341389,429
1506653341397,429
1506653341406,428
1506653341414,431
1506653341419,426
1506653341426,429
1506653341434,427
1506653341443,424
1506653341451,427
1506653341459,422
1506653341467,423
1506653341475,422
1506653341484,420
1506653341492,426
1506653341500,427
1506653341508,440
1506653341516,454
1506653341524,472
1506653341533,503
1506653341541,529
1506653341549,567
1506653341557,604
1506653341566,640
1506653341573,679
1506653341577,708
1506653341586,737
1506653341594,757
1506653341602,768
1506653341610,780
1506653341618,775
1506653341627,770
1506653341634,759
1506653341643,739
1506653341651,722
1506653341659,696
1506653341668,674
1506653341676,649
1506653341684,624
1506653341692,606
1506653341700,581
1506653341708,564
1506653341717,546
1506653341725,528
1506653341733,517
1506653341737,500
1506653341745,492
1506653341753,480
1506653341761,467
1506653341769,464
1506653341777,453
1506653341787,454
1506653341796,453
1506653341803,450
1506653341812,456
1506653341820,455
1506653341827,461
1506653341836,466
1506653341844,467
1506653341852,476
1506653341860,476
1506653341868,482
1506653341876,486
1506653341884,484
1506653341892,488
1506653341897,483
1506653341905,483
1506653341913,480
1506653341922,473
1506653341930,472
1506653341938,463
1506653341946,461
1506653341955,456
1506653341963,449
1506653341971,447
1506653341980,439
1506653341987,438
1506653341995,435
1506653342004,429
1506653342011,431
1506653342020,426
1506653342028,426
1506653342036,425
1506653342045,422
1506653342052,426
1506653342057,423
1506653342065,426
1506653342073,427
1506653342081,424
1506653342089,431
1506653342097,427
1506653342106,430
1506653342114,430
1506653342122,427
1506653342131,431
1506653342138,427
1506653342147,428
1506653342156,427
1506653342164,423
1506653342171,426
1506653342180,422
1506653342187,423
1506653342195,423
1506653342204,418
1506653342211,423
1506653342216,421
1506653342224,428
1506653342232,438
1506653342241,451
1506653342250,474
1506653342257,496
1506653342266,528
1506653342273,563
1506653342281,595
1506653342290,637
1506653342298,668
1506653342306,700
1506653342316,726
1506653342323,741
1506653342332,758
1506653342341,760
1506653342348,760
1506653342356,754
1506653342364,737
1506653342372,724
1506653342376,699
1506653342384,678
1506653342392,656
1506653342400,627
1506653342409,609
1506653342417,583
1506653342425,564
1506653342433,547
1506653342442,526
1506653342450,514
1506653342458,496
1506653342467,484
1506653342475,475
1506653342482,462
1506653342491,458
1506653342500,450
1506653342508,448
1506653342515,448
1506653342523,443
1506653342531,449
1506653342535,449
1506653342544,454
1506653342552,459
1506653342561,462
1506653342569,471
1506653342577,472
1506653342585,478
1506653342593,482
1506653342601,480
1506653342610,485
1506653342618,482
1506653342626,482
1506653342634,481
1506653342643,474
1506653342651,475
1506653342659,467
1506653342668,463
1506653342675,459
1506653342684,450
1506653342691,449
1506653342696,440
1506653342704,438
1506653342712,435
1506653342720,429
1506653342728,431
1506653342736,425
1506653342745,425
1506653342753,425
1506653342761,421
1506653342769,424
1506653342777,421
1506653342786,423
1506653342794,425
1506653342802,422
1506653342810,428
1506653342818,426
1506653342827,427
1506653342834,430
1506653342844,427
1506653342852,431
1506653342859,428
1506653342863,429
1506653342872,430
1506653342880,426
1506653342888,429
1506653342896,425
1506653342905,426
1506653342913,427
1506653342921,422
1506653342929,427
1506653342937,427
1506653342945,435
1506653342953,447
1506653342962,460
1506653342970,486
1506653342978,510
1506653342986,541
1506653342995,577
1506653343003,608
1506653343011,649
1506653343019,678
1506653343023,707
1506653343031,732
1506653343040,744
1506653343048,757
1506653343056,756
1506653343064,752
1506653343072,744
1506653343080,726
1506653343089,711
1506653343097,687
1506653343105,664
1506653343113,642
1506653343121,613
1506653343130,595
1506653343138,570
1506653343146,550
1506653343154,533
1506653343162,513
1506653343170,501
1506653343178,485
1506653343183,474
1506653343191,465
1506653343199,452
1506653343208,451
1506653343215,446
1506653343224,444
1506653343232,446
1506653343240,443
1506653343249,450
1506653343257,452
1506653343265,457
1506653343273,465
1506653343281,467
1506653343289,477
1506653343297,478
1506653343306,482
1506653343314,488
1506653343322,486
1506653343330,492
1506653343338,488
1506653343343,484
1506653343351,482
1506653343359,474
1506653343367,471
1506653343375,463
1506653343383,458
1506653343391,454
1506653343399,445
1506653343408,444
1506653343416,437
1506653343425,433
1506653343433,432
1506653343441,425
1506653343450,428
1506653343457,425
1506653343466,425
1506653343474,426
1506653343482,423
1506653343490,428
1506653343498,427
1506653343502,427
1506653343510,431
1506653343519,428
1506653343527,433
1506653343535,432
1506653343544,432
1506653343552,434
1506653343560,432
1506653343568,433
1506653343576,430
1506653343584,429
1506653343592,430
1506653343601,425
1506653343609,429
1506653343617,428
1506653343625,433
1506653343634,442
1506653343642,450
1506653343650,471
1506653343657,492
1506653343662,518
1506653343671,552
1506653343679,583
1506653343687,621
1506653343695,653
1506653343703,683
1506653343711,712
1506653343720,729
1506653343728,748
1506653343736,753
1506653343744,752
1506653343753,750
1506653343760,735
1506653343768,722
1506653343776,701
1506653343785,679
1506653343793,659
1506653343801,630
1506653343809,610
1506653343817,586
1506653343822,563
1506653343830,547
1506653343838,526
1506653343847,512
1506653343855,494
1506653343862,479
1506653343871,469
1506653343879,455
1506653343887,451
1506653343895,443
1506653343903,439
1506653343912,441
1506653343920,438
1506653343928,444
1506653343936,447
1506653343945,451
1506653343953,460
1506653343961,464
1506653343969,474
1506653343977,477
1506653343981,482
1506653343989,489
1506653343998,488
1506653344006,492
1506653344014,490
1506653344022,487
1506653344030,488
1506653344038,479
1506653344047,478
1506653344055,471
1506653344063,464
1506653344071,462
1506653344079,451
1506653344089,449
1506653344097,443
1506653344105,437
1506653344113,436
1506653344121,429
1506653344129,429
1506653344137,428
1506653344143,424
1506653344150,426
1506653344158,422
1506653344167,426
1506653344174,425
1506653344182,424
1506653344191,428
1506653344199,425
1506653344207,429
1506653344215,428
1506653344223,428
1506653344231,431
1506653344240,427
1506653344248,430
1506653344256,428
1506653344264,426
1506653344272,430
1506653344281,428
1506653344289,436
1506653344297,443
1506653344301,455
1506653344310,477
1506653344318,497
1506653344326,529
1506653344334,562
1506653344342,596
1506653344350,633
1506653344359,663
1506653344367,696
1506653344375,721
1506653344383,739
1506653344391,754
1506653344399,755
1506653344408,756
1506653344416,748
1506653344424,732
1506653344432,717
1506653344440,693
1506653344448,671
1506653344456,646
1506653344461,618
1506653344469,600
1506653344477,571
1506653344486,552
1506653344493,531
1506653344502,510
1506653344510,496
1506653344518,478
1506653344526,466
1506653344534,455
1506653344543,446
1506653344551,445
1506653344559,436
1506653344567,437
1506653344575,437
1506653344583,437
1506653344591,445
1506653344600,448
1506653344608,457
1506653344616,464
1506653344624,469
1506653344628,479
1506653344636,482
1506653344645,490
1506653344653,493
1506653344661,492
1506653344669,496
1506653344678,492
1506653344686,491
1506653344694,488
1506653344702,481
1506653344710,479
1506653344718,469
1506653344727,466
1506653344735,459
1506653344743,452
1506653344752,451
1506653344760,444
1506653344768,441
1506653344776,439
1506653344784,433
1506653344788,436
1506653344796,431
1506653344805,432
1506653344813,431
1506653344821,429
1506653344829,434
1506653344837,430
1506653344846,433
1506653344855,434
1506653344862,432
1506653344870,438
1506653344879,434
1506653344887,437
1506653344894,438
1506653344903,435
1506653344912,437
1506653344919,433
1506653344927,435
1506653344936,435
1506653344944,434
1506653344948,439
1506653344957,439
1506653344965,450
1506653344973,463
1506653344981,479
1506653344989,508
1506653344997,534
1506653345006,570
1506653345014,606
1506653345022,641
1506653345031,680
1506653345038,709
1506653345048,738
1506653345055,758
1506653345064,767
1506653345071,776
1506653345079,769
1506653345087,761
1506653345095,746
1506653345103,723
1506653345108,704
1506653345117,674
1506653345125,649
1506653345133,622
1506653345141,594
1506653345149,573
1506653345158,547
1506653345165,528
1506653345173,511
1506653345181,491
1506653345189,479
1506653345199,463
1506653345207,454
1506653345216,448
1506653345224,440
1506653345232,441
1506653345240,437
1506653345248,442
1506653345256,448
1506653345263,451
1506653345268,462
1506653345276,466
1506653345284,476
1506653345292,486
1506653345300,491
1506653345309,501
1506653345317,503
1506653345325,507
1506653345333,509
1506653345341,506
1506653345350,508
1506653345358,500
1506653345366,497
1506653345374,493
1506653345383,482
1506653345390,478
1506653345400,467
1506653345408,462
1506653345415,457
1506653345424,447
1506653345428,446
1506653345436,438
1506653345444,437
1506653345452,436
1506653345460,431
1506653345468,435
1506653345476,432
1506653345485,434
1506653345493,435
1506653345501,433
1506653345509,437
1506653345517,435
1506653345526,437
1506653345534,439
1506653345542,436
1506653345552,440
1506653345560,436
1506653345567,437
1506653345576,438
1506653345583,434
1506653345587,437
1506653345595,433
1506653345604,437
1506653345612,443
1506653345620,449
1506653345628,468
1506653345636,485
1506653345644,511
1506653345653,544
1506653345661,575
1506653345669,617
1506653345677,650
1506653345686,685
1506653345694,718
1506653345702,740
1506653345710,762
1506653345718,771
1506653345727,776
1506653345734,777
1506653345744,763
1506653345747,751
1506653345756,727
1506653345763,705
1506653345771,681
1506653345779,651
1506653345788,629
1506653345796,600
1506653345804,577
1506653345812,556
1506653345820,531
1506653345829,517
1506653345837,498
1506653345846,484
1506653345853,472
1506653345861,457
1506653345869,453
1506653345878,445
1506653345886,442
1506653345894,443
1506653345902,442
1506653345906,448
1506653345914,450
1506653345922,458
1506653345931,466
1506653345940,471
1506653345948,483
1506653345956,487
1506653345964,494
1506653345972,501
1506653345980,501
1506653345988,506
1506653345996,503
1506653346004,501
1506653346013,499
1506653346022,490
1506653346030,487
1506653346038,478
1506653346046,471
1506653346055,468
1506653346062,456
1506653346066,453
1506653346074,446
1506653346082,441
1506653346091,440
1506653346099,433
1506653346107,434
1506653346115,430
1506653346123,430
1506653346131,431
1506653346140,428
1506653346148,432
1506653346157,430
1506653346165,431
1506653346173,436
1506653346181,432
1506653346189,437
1506653346197,436
1506653346207,437
1506653346214,440
1506653346222,437
1506653346226,440
1506653346235,437
1506653346243,437
1506653346251,439
1506653346259,433
1506653346267,436
1506653346276,433
1506653346284,431
1506653346292,434
1506653346300,430
1506653346308,432
1506653346316,432
1506653346324,437
1506653346333,448
1506653346341,458
1506653346349,483
1506653346357,507
1506653346366,539
1506653346374,579
1506653346381,615
1506653346390,659
1506653346394,697
1506653346402,731
1506653346410,763
1506653346419,783
1506653346427,802
1506653346435,807
1506653346443,806
1506653346451,802
1506653346459,784
1506653346468,770
1506653346476,746
1506653346484,720
1506653346492,699
1506653346500,668
1506653346509,645
1506653346517,619
1506653346525,596
1506653346533,578
1506653346541,557
1506653346550,543
1506653346554,526
1506653346562,511
1506653346570,503
1506653346578,487
1506653346586,481
1506653346594,471
1506653346602,463
1506653346611,462
1506653346619,455
1506653346627,457
1506653346635,456
1506653346644,458
1506653346652,465
1506653346660,465
1506653346668,474
1506653346676,478
1506653346684,482
1506653346693,490
1506653346701,490
1506653346709,496
1506653346713,496
1506653346721,495
1506653346729,496
1506653346738,489
1506653346746,488
1506653346754,482
1506653346762,475
1506653346770,472
1506653346778,462
1506653346787,459
1506653346795,452
1506653346804,445
1506653346812,443
1506653346820,435
1506653346828,434
1506653346837,429
1506653346845,426
1506653346853,428
1506653346861,422
1506653346869,425
1506653346873,425
1506653346881,424
1506653346889,428
1506653346897,425
1506653346906,430
1506653346914,429
1506653346923,429
1506653346931,433
1506653346939,431
1506653346948,434
1506653346955,434
1506653346963,433
1506653346971,437
1506653346979,433
1506653346988,437
1506653346996,436
1506653347004,435
1506653347012,437
1506653347020,433
1506653347028,435
1506653347032,433
1506653347042,431
1506653347050,432
1506653347058,427
1506653347066,429
1506653347074,427
1506653347082,425
1506653347090,430
1506653347098,431
1506653347106,443
1506653347114,457
1506653347123,477
1506653347131,508
1506653347139,536
1506653347148,577
1506653347156,616
1506653347164,655
1506653347172,699
1506653347180,729
1506653347188,762
1506653347193,786
1506653347201,799
1506653347209,811
1506653347217,809
1506653347226,811
1506653347233,798
1506653347241,774
1506653347250,755
1506653347258,725
1506653347266,701
1506653347274,675
1506653347282,647
1506653347291,627
1506653347299,602
1506653347307,585
1506653347315,568
1506653347324,550
1506653347332,538
1506653347340,520
1506653347349,510
1506653347353,496
1506653347362,484
1506653347370,479
1506653347377,466
1506653347385,462
1506653347394,458
1506653347402,453
1506653347410,457
1506653347418,454
1506653347427,459
1506653347434,462
1506653347442,464
1506653347451,472
1506653347459,471
1506653347467,478
1506653347475,482
1506653347484,482
1506653347492,488
1506653347500,485
1506653347508,486
1506653347512,485
1506653347521,480
1506653347529,479
1506653347537,471
1506653347545,468
1506653347554,463
1506653347562,455
1506653347570,453
1506653347578,443
1506653347586,441
1506653347594,438
1506653347602,432
1506653347610,432
1506653347618,427
1506653347627,429
1506653347635,427
1506653347643,424
1506653347652,427
1506653347660,423
1506653347668,426
1506653347672,426
1506653347680,425
1506653347688,429
1506653347696,426
1506653347704,429
1506653347713,430
1506653347721,430
1506653347730,434
1506653347737,431
1506653347746,433
1506653347754,433
1506653347762,430
1506653347771,434
1506653347779,430
1506653347787,432
1506653347795,433
1506653347803,430
1506653347811,432
1506653347819,430
1506653347827,432
1506653347831,432
1506653347839,429
1506653347848,433
1506653347856,427
1506653347865,429
1506653347873,428
1506653347881,424
1506653347889,427
1506653347897,422
1506653347906,424
1506653347914,426
1506653347922,429
1506653347930,440
1506653347938,451
1506653347947,473
1506653347955,498
1506653347962,527
1506653347970,569
1506653347979,605
1506653347986,647
1506653347991,688
1506653347999,721
1506653348007,756
1506653348015,778
1506653348024,797
1506653348032,807
1506653348041,806
1506653348049,805
1506653348057,790
1506653348065,775
1506653348074,755
1506653348083,728
1506653348090,707
1506653348099,678
1506653348107,653
1506653348115,631
1506653348122,606
1506653348131,590
1506653348139,569
1506653348147,555
1506653348155,542
1506653348160,525
1506653348167,515
1506653348175,499
1506653348184,491
1506653348192,482
1506653348200,471
1506653348208,469
1506653348216,460
1506653348225,460
1506653348233,461
1506653348241,458
1506653348249,463
1506653348258,463
1506653348267,468
1506653348275,474
1506653348282,475
1506653348291,482
1506653348299,481
1506653348306,485
1506653348315,488
1506653348319,484
1506653348327,488
1506653348335,483
1506653348343,481
1506653348352,479
1506653348360,472
1506653348368,469
1506653348376,461
1506653348384,457
1506653348393,452
1506653348401,444
1506653348409,442
1506653348417,434
1506653348427,432
1506653348433,431
1506653348441,424
1506653348450,426
1506653348460,422
1506653348466,424
1506653348475,423
1506653348479,421
1506653348487,425
1506653348495,421
1506653348503,423
1506653348511,426
1506653348519,423
1506653348528,428
1506653348536,427
1506653348544,430
1506653348553,432
1506653348561,431
1506653348569,435
1506653348577,432
1506653348585,432
1506653348594,433
1506653348602,429
1506653348610,433
1506653348618,429
1506653348626,429
1506653348634,430
1506653348638,426
1506653348647,429
1506653348655,426
1506653348663,426
1506653348671,427
1506653348679,422
1506653348688,426
1506653348695,422
1506653348704,422
1506653348712,424
1506653348720,419
1506653348728,423
1506653348737,419
1506653348745,419
1506653348753,420
1506653348761,416
1506653348769,420
1506653348778,419
1506653348786,427
1506653348794,437
1506653348798,448
1506653348806,474
1506653348814,498
1506653348822,531
1506653348830,571
1506653348839,609
1506653348847,655
1506653348855,692
1506653348863,729
1506653348872,762
1506653348880,783
1506653348888,804
1506653348896,810
1506653348904,812
1506653348913,807
1506653348921,790
1506653348929,775
1506653348937,750
1506653348946,726
1506653348954,702
1506653348958,672
1506653348966,650
1506653348974,623
1506653348982,601
1506653348990,583
1506653348999,562
1506653349007,550
1506653349015,533
1506653349023,521
1506653349031,511
1506653349039,497
1506653349048,492
1506653349056,482
1506653349064,475
1506653349072,472
1506653349080,463
1506653349088,465
1506653349097,461
1506653349105,462
1506653349113,466
1506653349117,466
1506653349125,474
1506653349133,477
1506653349142,482
1506653349150,489
1506653349158,489
1506653349166,497
1506653349174,494
1506653349183,495
1506653349192,495
1506653349200,489
1506653349208,490
1506653349216,483
1506653349224,478
1506653349232,475
1506653349241,465
1506653349249,463
1506653349257,455
1506653349266,449
1506653349273,446
1506653349277,439
1506653349286,438
1506653349294,431
1506653349302,429
1506653349310,430
1506653349318,425
1506653349327,428
1506653349334,427
1506653349343,427
1506653349351,431
1506653349360,428
1506653349367,433
1506653349375,431
1506653349384,431
1506653349392,435
1506653349400,432
1506653349408,436
1506653349416,434
1506653349425,434
1506653349432,438
1506653349437,434
1506653349445,437
1506653349454,436
1506653349462,436
1506653349470,438
1506653349478,435
1506653349487,437
1506653349495,433
1506653349503,431
1506653349511,433
1506653349519,427
1506653349527,430
1506653349535,426
1506653349544,424
1506653349552,425
1506653349560,421
1506653349568,423
1506653349576,419
1506653349584,420
1506653349593,425
1506653349597,426
1506653349605,439
1506653349613,453
1506653349621,472
1506653349630,502
1506653349638,528
1506653349646,567
1506653349655,603
1506653349663,642
1506653349671,680
1506653349679,708
1506653349687,739
1506653349695,757
1506653349703,769
1506653349711,778
1506653349720,771
1506653349728,766
1506653349736,751
1506653349744,731
1506653349753,713
1506653349761,685
1506653349765,663
1506653349773,637
1506653349781,611
1506653349790,590
1506653349798,564
1506653349806,550
1506653349814,530
1506653349822,513
1506653349830,502
1506653349838,485
1506653349847,478
1506653349855,468
1506653349863,460
1506653349871,460
1506653349879,454
1506653349887,456
1506653349895,455
1506653349904,457
1506653349913,464
1506653349921,465
1506653349926,475
1506653349934,479
1506653349941,484
1506653349950,493
1506653349958,494
1506653349966,500
1506653349973,501
1506653349981,501
1506653349990,503
1506653349998,497
1506653350006,497
1506653350014,490
1506653350023,484
1506653350031,481
1506653350039,470
1506653350047,467
1506653350056,459
1506653350064,452
1506653350072,449
1506653350080,440
1506653350084,440
1506653350093,434
1506653350101,430
1506653350109,431
1506653350117,425
1506653350126,429
1506653350133,426
1506653350141,425
1506653350150,430
1506653350158,426
1506653350166,429
1506653350174,430
1506653350182,429
1506653350190,435
1506653350199,430
1506653350207,434
1506653350215,434
1506653350224,432
1506653350232,438
1506653350240,433
1506653350245,436
1506653350254,434
1506653350261,433
1506653350268,436
1506653350277,433
1506653350286,436
1506653350293,434
1506653350301,432
1506653350309,435
1506653350317,430
1506653350326,434
1506653350334,432
1506653350342,429
1506653350351,432
1506653350359,427
1506653350366,429
1506653350375,427
1506653350383,424
1506653350391,428
1506653350399,425
1506653350403,432
1506653350411,437
1506653350420,446
1506653350429,467
1506653350436,485
1506653350444,514
1506653350454,548
1506653350462,583
1506653350469,626
1506653350478,661
1506653350486,701
1506653350494,734
1506653350502,759
1506653350510,782
1506653350518,791
1506653350526,800
1506653350534,798
1506653350543,787
1506653350551,777
1506653350559,757
1506653350563,737
1506653350572,714
1506653350580,688
1506653350588,667
1506653350597,640
1506653350604,621
1506653350614,599
1506653350622,580
1506653350630,568
1506653350638,550
1506653350646,540
1506653350654,529
1506653350662,516
1506653350670,510
1506653350678,498
1506653350686,493
1506653350694,486
1506653350702,480
1506653350711,481
1506653350719,474
1506653350723,476
1506653350731,477
1506653350739,477
1506653350748,483
1506653350756,483
1506653350764,488
1506653350772,492
1506653350780,493
1506653350789,499
1506653350798,497
1506653350806,500
1506653350813,499
1506653350822,496
1506653350830,496
1506653350838,488
1506653350846,486
1506653350854,481
1506653350863,471
1506653350870,469
1506653350878,459
1506653350883,457
1506653350891,451
1506653350899,444
1506653350907,444
1506653350915,435
1506653350924,434
1506653350932,432
1506653350940,429
1506653350949,432
1506653350957,428
1506653350966,429
1506653350975,430
1506653350982,428
1506653350991,433
1506653350998,430
1506653351007,432
1506653351015,432
1506653351023,430
1506653351031,435
1506653351039,431
1506653351043,433
1506653351051,433
1506653351059,430
1506653351068,434
1506653351076,430
1506653351084,432
1506653351092,432
1506653351100,430
1506653351108,433
1506653351116,427
1506653351124,429
1506653351133,428
1506653351142,424
1506653351150,427
1506653351158,421
1506653351166,421
1506653351174,421
1506653351183,417
1506653351190,421
1506653351198,416
1506653351203,419
1506653351211,419
1506653351219,417
1506653351227,423
1506653351235,421
1506653351243,428
1506653351252,437
1506653351260,446
1506653351268,467
1506653351276,486
1506653351284,518
1506653351293,552
1506653351301,586
1506653351309,629
1506653351317,664
1506653351325,704
1506653351335,739
1506653351342,763
1506653351351,788
1506653351359,800
1506653351362,808
1506653351371,809
1506653351379,798
1506653351387,788
1506653351396,768
1506653351403,747
1506653351412,725
1506653351420,698
1506653351428,679
1506653351436,653
1506653351444,632
1506653351453,614
1506653351461,592
1506653351468,581
1506653351477,564
1506653351485,552
1506653351494,541
1506653351501,527
1506653351509,520
1506653351517,506
1506653351526,499
1506653351530,492
1506653351538,482
1506653351546,481
1506653351555,474
1506653351563,472
1506653351571,471
1506653351579,468
1506653351587,473
1506653351595,471
1506653351603,476
1506653351611,479
1506653351619,478
1506653351628,485
1506653351636,483
1506653351644,486
1506653351653,488
1506653351661,484
1506653351669,487
1506653351677,482
1506653351685,481
1506653351689,478
1506653351697,472
1506653351706,471
1506653351714,462
1506653351722,459
1506653351730,456
1506653351738,449
1506653351746,449
1506653351755,442
1506653351763,440
1506653351772,439
1506653351780,433
1506653351788,435
1506653351797,431
1506653351805,431
1506653351813,432
1506653351821,428
1506653351829,432
1506653351837,429
1506653351845,430
1506653351850,433
1506653351858,429
1506653351866,433
1506653351874,432
1506653351882,432
1506653351890,434
1506653351898,430
1506653351908,435
1506653351916,433
1506653351924,433
1506653351932,435
1506653351940,431
1506653351948,435
1506653351956,432
1506653351965,431
1506653351973,434
1506653351981,430
1506653351989,433
1506653351997,431
1506653352005,430
1506653352009,432
1506653352018,428
1506653352026,432
1506653352034,428
1506653352042,428
1506653352051,429
1506653352059,424
1506653352067,427
1506653352075,422
1506653352083,421
1506653352091,423
1506653352100,419
1506653352108,428
1506653352116,433
1506653352124,445
1506653352132,465
1506653352140,486
1506653352149,519
1506653352157,551
1506653352165,591
1506653352169,632
1506653352178,669
1506653352186,709
1506653352194,740
1506653352202,766
1506653352210,789
1506653352218,798
1506653352227,807
1506653352235,802
1506653352243,794
1506653352251,782
1506653352259,760
1506653352267,742
1506653352275,716
1506653352284,691
1506653352292,670
1506653352300,643
1506653352308,625
1506653352316,604
1506653352324,587
1506653352329,573
1506653352337,555
1506653352345,547
1506653352354,532
1506653352362,523
1506653352370,516
1506653352378,504
1506653352386,501
1506653352394,492
1506653352402,487
1506653352410,486
1506653352419,480
1506653352427,482
1506653352435,480
1506653352443,481
1506653352452,485
1506653352460,484
1506653352468,493
1506653352476,494
1506653352484,497
1506653352488,503
1506653352497,500
1506653352505,504
1506653352513,502
1506653352521,501
1506653352529,501
1506653352537,493
1506653352546,492
1506653352554,484
1506653352563,477
1506653352571,472
1506653352579,462
1506653352587,458
1506653352595,451
1506653352604,445
1506653352612,443
1506653352620,436
1506653352629,437
1506653352636,433
1506653352644,433
1506653352649,436
1506653352657,431
1506653352665,434
1506653352672,432
1506653352680,432
1506653352689,435
1506653352697,433
1506653352707,437
1506653352713,436
1506653352722,437
1506653352731,440
1506653352739,438
1506653352747,442
1506653352755,439
1506653352763,440
1506653352771,443
1506653352779,438
1506653352787,440
1506653352796,439
1506653352803,437
1506653352808,440
1506653352816,436
1506653352824,439
1506653352832,437
1506653352841,435
1506653352849,436
1506653352857,431
1506653352866,432
1506653352873,430
1506653352881,428
1506653352889,429
1506653352898,425
1506653352906,427
1506653352914,426
1506653352922,428
1506653352931,436
1506653352939,443
1506653352948,462
1506653352956,479
1506653352964,505
1506653352967,539
1506653352977,569
1506653352985,609
1506653352992,644
1506653353001,678
1506653353008,712
1506653353016,733
1506653353025,755
1506653353034,766
1506653353042,771
1506653353050,773
1506653353058,760
1506653353066,750
1506653353074,731
1506653353082,709
1506653353090,688
1506653353099,660
1506653353107,639
1506653353115,615
1506653353123,592
1506653353128,575
1506653353135,554
1506653353143,541
1506653353153,526
1506653353160,513
1506653353169,506
1506653353177,492
1506653353185,487
1506653353193,480
1506653353201,473
1506653353209,472
1506653353217,466
1506653353226,469
1506653353234,470
1506653353242,472
1506653353251,479
1506653353259,480
1506653353267,489
1506653353275,494
1506653353283,498
1506653353291,505
1506653353295,505
1506653353304,510
1506653353313,510
1506653353321,507
1506653353328,509
1506653353337,501
1506653353345,500
1506653353353,492
1506653353361,484
1506653353369,480
1506653353377,468
1506653353386,464
1506653353393,456
1506653353402,448
1506653353410,446
1506653353418,438
1506653353426,437
1506653353434,433
1506653353442,430
1506653353451,433
1506653353455,428
1506653353463,431
1506653353471,430
1506653353480,428
1506653353488,433
1506653353497,430
1506653353506,434
1506653353513,434
1506653353521,433
1506653353529,438
1506653353537,435
1506653353546,438
1506653353554,438
1506653353562,436
1506653353570,441
1506653353578,437
1506653353586,440
1506653353594,439
1506653353602,436
1506653353610,439
1506653353614,435
1506653353623,436
1506653353631,436
1506653353639,433
1506653353647,436
1506653353656,430
1506653353665,432
1506653353672,430
1506653353681,427
1506653353689,430
1506653353697,425
1506653353705,429
1506653353713,435
1506653353721,440
1506653353729,457
1506653353737,472
1506653353746,499
1506653353754,528
1506653353763,562
1506653353770,602
1506653353775,636
1506653353783,674
1506653353791,708
1506653353799,734
1506653353808,762
1506653353816,775
1506653353824,786
1506653353832,789
1506653353840,783
1506653353849,777
1506653353857,759
1506653353865,743
1506653353874,721
1506653353881,696
1506653353889,677
1506653353897,650
1506653353906,630
1506653353914,610
1506653353922,591
1506653353930,579
1506653353934,561
1506653353943,550
1506653353951,538
1506653353959,524
1506653353967,518
1506653353975,505
1506653353983,499
1506653353992,493
1506653354000,482
1506653354008,483
1506653354016,476
1506653354024,476
1506653354032,476
1506653354041,474
1506653354050,480
1506653354057,479
1506653354065,485
1506653354073,488
1506653354082,490
1506653354090,497
1506653354094,495
1506653354102,499
1506653354110,499
1506653354118,494
1506653354127,493
1506653354135,485
1506653354143,480
1506653354151,473
1506653354160,463
1506653354168,459
1506653354176,447
1506653354184,444
1506653354192,437
1506653354201,429
1506653354209,429
1506653354217,423
1506653354225,423
1506653354233,423
1506653354242,421
1506653354250,426
1506653354254,426
1506653354262,430
1506653354270,434
1506653354278,434
1506653354287,442
1506653354295,440
1506653354303,443
1506653354311,445
1506653354319,442
1506653354328,444
1506653354336,440
1506653354344,442
1506653354352,442
1506653354360,439
1506653354368,444
1506653354376,442
1506653354385,445
1506653354394,446
1506653354401,444
1506653354410,448
1506653354413,445
1506653354422,447
1506653354430,448
1506653354438,445
1506653354446,448
1506653354454,443
1506653354463,443
1506653354471,440
1506653354479,434
1506653354487,436
1506653354495,431
1506653354503,433
1506653354511,438
1506653354520,441
1506653354528,457
1506653354536,472
1506653354544,497
1506653354553,528
1506653354561,559
1506653354569,601
1506653354573,638
1506653354581,678
1506653354589,716
1506653354597,743
1506653354606,772
1506653354614,786
1506653354622,797
1506653354630,801
1506653354638,793
1506653354646,788
1506653354655,770
1506653354663,755
1506653354671,736
1506653354679,711
1506653354687,693
1506653354696,668
1506653354704,647
1506653354712,626
1506653354720,602
1506653354728,587
1506653354736,566
1506653354740,552
1506653354749,537
1506653354757,520
1506653354766,508
1506653354773,491
1506653354781,479
1506653354790,472
1506653354798,461
1506653354806,462
1506653354814,458
1506653354823,457
1506653354831,461
1506653354839,461
1506653354847,466
1506653354856,463
1506653354864,470
1506653354873,479
1506653354881,481
1506653354889,491
1506653354897,491
1506653354901,491
1506653354909,494
1506653354917,489
1506653354926,491
1506653354934,486
1506653354942,486
1506653354950,485
1506653354959,479
1506653354967,481
1506653354975,471
1506653354983,465
1506653354991,463
1506653354999,454
1506653355008,453
1506653355016,442
1506653355024,434
1506653355032,427
1506653355040,415
1506653355048,413
1506653355056,410
1506653355061,412
1506653355069,416
1506653355077,417
1506653355085,425
1506653355093,429
1506653355102,435
1506653355110,444
1506653355118,446
1506653355126,454
1506653355134,455
1506653355142,456
1506653355150,460
1506653355159,456
1506653355168,459
1506653355176,454
1506653355183,453
1506653355192,453
1506653355200,446
1506653355208,448
1506653355216,443
1506653355220,439
1506653355228,440
1506653355236,434
1506653355245,436
1506653355253,431
1506653355262,429
1506653355270,429
1506653355277,424
1506653355286,426
1506653355294,422
1506653355302,423
1506653355310,428
1506653355319,431
1506653355327,445
1506653355335,460
1506653355343,482
1506653355352,512
1506653355360,541
1506653355368,581
1506653355375,621
1506653355380,657
1506653355388,695
1506653355396,722
1506653355404,751
1506653355412,769
1506653355421,780
1506653355429,787
1506653355437,782
1506653355445,777
1506653355454,761
1506653355462,742
1506653355470,724
1506653355478,697
1506653355486,677
1506653355495,652
1506653355504,627
1506653355511,610
1506653355520,587
1506653355528,572
1506653355536,557
1506653355540,543
1506653355548,534
1506653355556,519
1506653355564,512
1506653355572,501
1506653355580,492
1506653355589,487
1506653355597,478
1506653355605,475
1506653355613,470
1506653355621,467
1506653355629,469
1506653355638,465
1506653355646,471
1506653355654,472
1506653355663,475
1506653355671,483
1506653355679,484
1506653355687,491
1506653355695,493
1506653355700,495
1506653355708,500
1506653355716,495
1506653355724,497
1506653355732,492
1506653355740,490
1506653355749,486
1506653355757,476
1506653355765,473
1506653355773,466
1506653355781,459
1506653355789,456
1506653355797,448
1506653355805,446
1506653355814,440
1506653355822,437
1506653355830,438
1506653355838,433
1506653355847,435
1506653355855,434
1506653355860,432
1506653355868,436
1506653355876,432
1506653355883,437
1506653355892,436
1506653355900,436
1506653355909,440
1506653355917,436
1506653355925,440
1506653355933,440
1506653355941,439
1506653355950,443
1506653355958,438
1506653355966,443
1506653355974,442
1506653355982,440
1506653355990,444
1506653355998,439
1506653356006,442
1506653356014,440
1506653356019,439
1506653356027,441
1506653356036,434
1506653356044,436
1506653356051,432
1506653356060,429
1506653356068,431
1506653356077,424
1506653356085,427
1506653356093,427
1506653356101,428
1506653356109,437
1506653356117,443
1506653356126,462
1506653356134,481
1506653356142,507
1506653356150,540
1506653356158,571
1506653356167,611
1506653356174,647
1506653356179,679
1506653356187,713
1506653356195,735
1506653356203,756
1506653356213,767
1506653356220,770
1506653356229,771
1506653356237,758
1506653356244,746
1506653356253,726
1506653356261,703
1506653356268,682
1506653356277,653
1506653356286,632
1506653356294,608
1506653356302,585
1506653356310,567
1506653356318,546
1506653356326,534
1506653356334,520
1506653356342,507
1506653356347,499
1506653356355,486
1506653356363,480
1506653356371,472
1506653356379,465
1506653356388,464
1506653356395,459
1506653356404,461
1506653356412,462
1506653356420,464
1506653356428,471
1506653356436,472
1506653356444,480
1506653356453,486
1506653356461,491
1506653356469,500
1506653356477,498
1506653356486,502
1506653356494,501
1506653356502,495
1506653356506,493
1506653356514,485
1506653356523,482
1506653356531,475
1506653356539,465
1506653356547,459
1506653356556,445
1506653356565,438
1506653356572,430
1506653356580,420
1506653356588,416
1506653356596,408
1506653356605,409
1506653356613,407
1506653356621,404
1506653356629,408
1506653356637,403
1506653356646,403
1506653356654,398
1506653356662,384
1506653356667,382
1506653356674,376
1506653356683,378
1506653356691,379
1506653356699,382
1506653356707,392
1506653356715,392
1506653356723,396
1506653356733,397
1506653356740,399
1506653356748,405
1506653356758,405
1506653356766,419
1506653356774,441
1506653356781,456
1506653356789,476
1506653356797,487
1506653356806,502
1506653356813,508
1506653356821,508
1506653356826,511
1506653356834,501
1506653356842,496
1506653356850,486
1506653356859,473
1506653356867,472
1506653356875,477
1506653356883,490
1506653356891,504
1506653356900,521
1506653356909,551
1506653356916,578
1506653356925,612
1506653356933,648
1506653356940,678
1506653356949,713
1506653356957,733
1506653356965,755
1506653356973,771
1506653356981,773
1506653356986,776
1506653356994,766
1506653357002,756
1506653357010,742
1506653357018,717
1506653357026,696
1506653357034,665
1506653357043,636
1506653357051,606
1506653357060,573
1506653357068,548
1506653357076,517
1506653357084,499
1506653357093,486
1506653357100,472
1506653357108,468
1506653357117,460
1506653357125,462
1506653357133,464
1506653357141,464
1506653357146,473
1506653357154,471
1506653357162,476
1506653357169,481
1506653357178,488
1506653357187,498
1506653357195,492
1506653357203,491
1506653357211,486
1506653357219,470
1506653357227,460
1506653357235,447
1506653357243,426
1506653357252,408
1506653357260,391
1506653357269,425
1506653357277,442
1506653357286,447
1506653357294,452
1506653357301,462
1506653357305,466
1506653357313,448
1506653357321,458
1506653357329,486
1506653357337,499
1506653357346,505
1506653357354,497
1506653357363,502
1506653357370,509
1506653357378,504
1506653357387,502
1506653357395,500
1506653357403,509
1506653357411,518
1506653357419,520
1506653357428,526
1506653357436,524
1506653357444,523
1506653357452,521
1506653357462,512
1506653357465,511
1506653357473,503
1506653357481,499
1506653357489,494
1506653357497,482
1506653357505,476
1506653357514,464
1506653357522,459
1506653357530,454
1506653357538,445
1506653357546,445
1506653357555,438
1506653357563,437
1506653357572,437
1506653357580,432
1506653357588,435
1506653357596,432
1506653357604,434
1506653357613,435
1506653357621,431
1506653357625,435
1506653357633,431
1506653357641,432
1506653357649,433
1506653357658,428
1506653357666,434
1506653357673,434
1506653357681,440
1506653357690,450
1506653357698,459
1506653357706,481
1506653357714,502
1506653357723,533
1506653357730,570
1506653357739,604
1506653357747,648
1506653357756,683
1506653357764,719
1506653357772,753
1506653357780,774
1506653357785,795
1506653357793,802
1506653357801,805
1506653357809,801
1506653357817,786
1506653357825,774
1506653357833,751
1506653357841,729
1506653357849,707
1506653357858,678
1506653357866,661
1506653357874,637
1506653357883,618
1506653357891,603
1506653357899,585
1506653357907,575
1506653357915,560
1506653357924,549
1506653357932,540
1506653357940,526
1506653357944,521
1506653357952,509
1506653357961,501
1506653357969,495
1506653357977,484
1506653357986,482
1506653357993,475
1506653358002,472
1506653358010,473
1506653358018,472
1506653358027,480
1506653358034,483
1506653358042,488
1506653358050,494
1506653358059,494
1506653358067,502
1506653358075,502
1506653358083,503
1506653358092,506
1506653358100,503
1506653358108,505
1506653358112,498
1506653358120,495
1506653358129,492
1506653358137,481
1506653358145,480
1506653358153,470
1506653358161,465
1506653358170,462
1506653358178,452
1506653358186,452
1506653358194,445
1506653358202,442
1506653358211,442
1506653358219,435
1506653358227,438
1506653358235,435
1506653358243,435
1506653358251,438
1506653358260,434
1506653358268,438
1506653358272,437
1506653358280,437
1506653358288,441
1506653358296,437
1506653358304,441
1506653358312,439
1506653358321,439
1506653358329,442
1506653358337,437
1506653358346,442
1506653358353,440
1506653358362,440
1506653358370,442
1506653358379,438
1506653358387,441
1506653358395,438
1506653358403,437
1506653358411,439
1506653358419,433
1506653358427,436
1506653358431,433
1506653358440,431
1506653358448,433
1506653358456,428
1506653358465,430
1506653358472,427
1506653358481,424
1506653358489,426
1506653358497,421
1506653358505,425
1506653358514,423
1506653358522,427
1506653358530,437
1506653358538,447
1506653358546,468
1506653358554,489
1506653358563,518
1506653358571,555
1506653358579,588
1506653358587,631
1506653358591,668
1506653358600,704
1506653358608,738
1506653358616,761
1506653358624,784
1506653358632,794
1506653358640,798
1506653358649,798
1506653358657,786
1506653358665,776
1506653358673,756
1506653358681,733
1506653358690,713
1506653358698,687
1506653358706,667
1506653358714,644
1506653358722,624
1506653358730,608
1506653358739,589
1506653358747,580
1506653358752,567
1506653358759,556
1506653358767,550
1506653358775,536
1506653358783,530
1506653358792,520
1506653358800,510
1506653358808,504
1506653358816,493
1506653358824,490
1506653358832,483
1506653358841,478
1506653358849,479
1506653358857,474
1506653358866,478
1506653358874,479
1506653358882,480
1506653358890,488
1506653358898,488
1506653358906,494
1506653358911,496
1506653358919,497
1506653358927,501
1506653358935,496
1506653358943,498
1506653358951,494
1506653358960,488
1506653358968,486
1506653358976,477
1506653358984,473
1506653358992,465
1506653359000,458
1506653359008,455
1506653359017,447
1506653359025,446
1506653359033,440
1506653359041,435
1506653359049,436
1506653359058,430
1506653359066,434
1506653359071,432
1506653359078,431
1506653359087,435
1506653359095,432
1506653359104,436
1506653359111,436
1506653359120,436
1506653359128,440
1506653359136,438
1506653359145,442
1506653359153,442
1506653359161,440
1506653359169,444
1506653359176,443
1506653359185,445
1506653359193,444
1506653359202,442
1506653359210,444
1506653359218,439
1506653359226,441
1506653359230,441
1506653359238,438
1506653359246,439
1506653359256,434
1506653359264,436
1506653359271,433
1506653359280,430
1506653359287,431
1506653359296,426
1506653359304,427
1506653359312,426
1506653359321,425
1506653359328,429
1506653359336,429
1506653359345,439
1506653359353,449
1506653359361,465
1506653359370,490
1506653359377,514
1506653359385,549
1506653359389,583
1506653359398,617
1506653359406,656
1506653359415,685
1506653359423,717
1506653359431,740
1506653359439,753
1506653359448,765
1506653359455,764
1506653359465,762
1506653359472,751
1506653359480,733
1506653359488,718
1506653359497,693
1506653359505,672
1506653359513,649
1506653359521,624
1506653359529,608
1506653359537,585
1506653359545,571
1506653359550,556
1506653359558,542
1506653359567,534
1506653359574,520
1506653359582,514
1506653359591,504
1506653359599,494
1506653359607,490
1506653359616,479
1506653359623,476
1506653359632,473
1506653359640,468
1506653359649,472
1506653359656,470
1506653359665,475
1506653359673,480
1506653359681,482
1506653359689,491
1506653359697,492
1506653359705,498
1506653359713,502
1506653359717,501
1506653359726,506
1506653359734,502
1506653359742,502
1506653359750,498
1506653359759,492
1506653359767,489
1506653359775,479
1506653359783,474
1506653359791,467
1506653359800,458
1506653359808,456
1506653359816,446
1506653359824,443
1506653359832,439
1506653359840,433
1506653359848,434
1506653359856,428
1506653359866,429
1506653359873,429
1506653359877,427
1506653359886,432
1506653359894,428
1506653359902,433
1506653359910,435
1506653359918,432
1506653359926,438
1506653359935,435
1506653359943,438
1506653359951,438
1506653359959,437
1506653359968,441
1506653359976,439
1506653359983,441
1506653359993,442
1506653360000,438
1506653360009,442
1506653360018,437
1506653360025,438
1506653360033,438
1506653360037,434
1506653360046,436
1506653360054,431
1506653360062,431
1506653360070,429
1506653360078,425
1506653360086,429
1506653360094,425
1506653360102,429
1506653360110,434
1506653360119,438
1506653360126,454
1506653360135,468
1506653360144,493
1506653360153,522
1506653360161,552
1506653360169,591
1506653360177,624
1506653360186,662
1506653360193,696
1506653360197,721
1506653360205,749
1506653360213,762
1506653360221,772
1506653360229,777
1506653360237,769
1506653360246,763
1506653360254,746
1506653360262,729
1506653360271,709
1506653360279,684
1506653360287,665
1506653360295,640
1506653360303,621
1506653360311,604
1506653360319,583
1506653360327,573
1506653360336,556
1506653360345,546
1506653360353,536
1506653360357,523
1506653360365,517
1506653360373,504
1506653360381,497
1506653360389,490
1506653360397,480
1506653360405,479
1506653360413,471
1506653360422,470
1506653360431,470
1506653360439,467
1506653360447,473
1506653360455,474
1506653360463,479
1506653360471,484
1506653360479,485
1506653360487,492
1506653360496,492
1506653360504,495
1506653360512,498
1506653360516,494
1506653360524,495
1506653360533,489
1506653360541,487
1506653360549,482
1506653360557,473
1506653360566,470
1506653360574,460
1506653360581,457
1506653360590,452
1506653360598,444
1506653360606,443
1506653360614,437
1506653360622,435
1506653360631,436
1506653360639,433
1506653360647,437
1506653360655,436
1506653360664,437
1506653360672,434
1506653360676,430
1506653360684,434
1506653360692,430
1506653360700,430
1506653360708,433
1506653360717,429
1506653360725,433
1506653360733,431
1506653360741,435
1506653360749,436
1506653360757,433
1506653360767,437
1506653360774,435
1506653360782,436
1506653360790,438
1506653360798,435
1506653360807,439
1506653360815,436
1506653360823,437
1506653360831,440
1506653360835,436
1506653360844,438
1506653360852,434
1506653360861,433
1506653360868,433
1506653360877,429
1506653360885,432
1506653360893,428
1506653360901,428
1506653360909,429
1506653360917,425
1506653360926,432
1506653360934,433
1506653360942,442
1506653360950,457
1506653360959,473
1506653360967,502
1506653360975,529
1506653360983,565
1506653360991,606
1506653360995,640
1506653361003,683
1506653361011,716
1506653361020,746
1506653361028,771
1506653361036,784
1506653361044,798
1506653361052,798
1506653361061,794
1506653361069,787
1506653361077,769
1506653361085,756
1506653361093,733
1506653361102,712
1506653361110,693
1506653361118,667
1506653361126,653
1506653361134,632
1506653361142,615
1506653361151,604
1506653361155,588
1506653361163,580
1506653361172,567
1506653361180,557
1506653361188,550
1506653361196,535
1506653361204,529
1506653361213,517
1506653361221,507
1506653361229,502
1506653361237,490
1506653361245,488
1506653361254,480
1506653361262,478
1506653361270,478
1506653361278,475
1506653361287,480
1506653361295,480
1506653361303,483
1506653361311,489
1506653361315,488
1506653361323,493
1506653361331,493
1506653361339,493
1506653361348,494
1506653361356,489
1506653361364,490
1506653361372,483
1506653361380,478
1506653361389,475
1506653361397,464
1506653361405,462
1506653361413,454
1506653361421,449
1506653361430,448
1506653361438,440
1506653361446,439
1506653361454,434
1506653361462,432
1506653361470,432
1506653361478,428
1506653361483,431
1506653361491,429
1506653361499,430
1506653361507,433
1506653361515,430
1506653361524,435
1506653361532,436
1506653361540,436
1506653361548,439
1506653361556,437
1506653361565,441
1506653361573,439
1506653361581,439
1506653361589,443
1506653361597,439
1506653361605,444
1506653361613,443
1506653361622,442
1506653361630,446
1506653361638,441
1506653361642,443
1506653361651,440
1506653361659,438
1506653361667,439
1506653361675,434
1506653361683,437
1506653361692,433
1506653361700,432
1506653361708,433
1506653361716,428
1506653361724,430
1506653361733,427
1506653361741,426
1506653361749,427
1506653361757,422
1506653361765,424
1506653361774,423
1506653361782,423
1506653361790,430
1506653361798,433
1506653361802,448
1506653361810,465
1506653361819,487
1506653361827,517
1506653361835,547
1506653361843,587
1506653361851,623
1506653361860,660
1506653361868,697
1506653361876,724
1506653361884,752
1506653361893,769
1506653361901,779
1506653361909,788
1506653361917,781
1506653361925,777
1506653361933,763
1506653361942,745
1506653361950,728
1506653361958,704
1506653361963,685
1506653361971,664
1506653361979,643
1506653361986,628
1506653361995,607
1506653362003,596
1506653362012,582
1506653362019,570
1506653362027,563
1506653362036,549
1506653362044,542
1506653362052,533
1506653362061,522
1506653362069,515
1506653362077,501
1506653362085,496
1506653362093,488
1506653362101,481
1506653362109,481
1506653362117,474
1506653362122,477
1506653362130,477
1506653362139,477
1506653362146,483
1506653362154,483
1506653362164,489
1506653362172,492
1506653362180,493
1506653362188,500
1506653362195,496
1506653362203,498
1506653362212,494
1506653362220,489
1506653362228,489
1506653362236,480
1506653362244,476
1506653362252,470
1506653362261,462
1506653362269,458
1506653362278,449
1506653362282,447
1506653362290,441
1506653362298,436
1506653362306,437
1506653362315,431
1506653362324,432
1506653362332,431
1506653362340,428
1506653362348,433
1506653362356,429
1506653362363,433
1506653362372,433
1506653362380,432
1506653362389,436
1506653362396,433
1506653362405,437
1506653362413,437
1506653362421,436
1506653362429,440
1506653362437,437
1506653362441,441
1506653362449,440
1506653362458,439
1506653362466,443
1506653362474,439
1506653362482,443
1506653362490,441
1506653362499,439
1506653362507,442
1506653362515,437
1506653362523,438
1506653362531,437
1506653362539,434
1506653362547,437
1506653362556,432
1506653362564,432
1506653362572,429
1506653362581,426
1506653362589,430
1506653362597,424
1506653362601,428
1506653362610,431
1506653362618,434
1506653362626,448
1506653362634,460
1506653362642,482
1506653362650,507
1506653362659,536
1506653362667,573
1506653362675,604
1506653362683,643
1506653362692,676
1506653362701,703
1506653362709,731
1506653362717,745
1506653362724,759
1506653362732,764
1506653362741,757
1506653362749,753
1506653362757,736
1506653362761,721
1506653362769,701
1506653362777,677
1506653362786,659
1506653362794,633
1506653362802,615
1506653362810,597
1506653362818,577
1506653362826,568
1506653362834,551
1506653362843,541
1506653362851,530
1506653362859,517
1506653362868,510
1506653362877,499
1506653362884,493
1506653362892,486
1506653362900,478
1506653362908,478
1506653362916,471
1506653362920,472
1506653362928,473
1506653362937,473
1506653362945,480
1506653362953,481
1506653362961,488
1506653362970,493
1506653362977,496
1506653362985,502
1506653362994,501
1506653363003,506
1506653363011,506
1506653363019,501
1506653363027,502
1506653363035,495
1506653363045,491
1506653363053,485
1506653363061,476
1506653363068,473
1506653363077,463
1506653363080,458
1506653363088,452
1506653363097,444
1506653363105,442
1506653363113,435
1506653363121,434
1506653363129,434
1506653363138,430
1506653363146,433
1506653363154,429
1506653363162,431
1506653363170,433
1506653363179,430
1506653363187,436
1506653363195,432
1506653363203,435
1506653363211,437
1506653363219,435
1506653363228,439
1506653363236,437
1506653363244,440
1506653363248,440
1506653363256,438
1506653363265,442
1506653363273,438
1506653363281,439
1506653363289,439
1506653363297,435
1506653363306,439
1506653363314,435
1506653363322,435
1506653363330,436
1506653363338,432
1506653363346,434
1506653363355,428
1506653363363,429
1506653363371,429
1506653363379,426
1506653363387,429
1506653363395,428
1506653363403,433
1506653363408,441
1506653363416,450
1506653363424,469
1506653363432,488
1506653363440,516
1506653363448,548
1506653363457,579
1506653363465,619
1506653363473,651
1506653363481,687
1506653363489,717
1506653363498,736
1506653363506,759
1506653363514,767
1506653363522,772
1506653363531,770
1506653363539,759
1506653363548,750
1506653363555,730
1506653363563,712
1506653363568,692
1506653363576,667
1506653363584,655
1506653363592,630
1506653363601,609
1506653363609,593
1506653363617,575
1506653363625,566
1506653363633,550
1506653363642,541
1506653363650,533
1506653363658,520
1506653363666,515
1506653363674,503
1506653363682,496
1506653363690,490
1506653363698,481
1506653363706,481
1506653363715,476
1506653363722,475
1506653363727,477
1506653363735,475
1506653363743,482
1506653363751,482
1506653363759,487
1506653363768,493
1506653363776,493
1506653363784,506
1506653363792,506
1506653363801,505
1506653363809,502
1506653363817,495
1506653363826,495
1506653363833,486
1506653363842,481
1506653363850,477
1506653363858,466
1506653363866,463
1506653363874,453
1506653363882,448
1506653363887,446
1506653363895,438
1506653363903,437
1506653363911,432
1506653363919,431
1506653363928,430
1506653363936,427
1506653363944,430
1506653363952,427
1506653363960,429
1506653363969,431
1506653363977,428
1506653363985,433
1506653363993,432
1506653364001,433
1506653364009,436
1506653364018,433
1506653364026,438
1506653364034,435
1506653364042,436
1506653364046,439
1506653364055,435
1506653364063,439
1506653364072,437
1506653364079,437
1506653364087,440
1506653364096,436
1506653364104,440
1506653364112,436
1506653364120,437
1506653364128,437
1506653364136,433
1506653364145,436
1506653364153,433
1506653364161,433
1506653364170,435
1506653364178,431
1506653364186,434
1506653364194,432
1506653364202,431
1506653364206,432
1506653364214,427
1506653364222,430
1506653364230,426
1506653364239,426
1506653364247,428
1506653364255,426
1506653364264,435
1506653364272,442
1506653364280,456
1506653364288,480
1506653364297,503
1506653364305,538
1506653364313,573
1506653364322,612
1506653364330,655
1506653364338,689
1506653364346,727
1506653364354,755
1506653364362,778
1506653364367,798
1506653364375,801
1506653364383,807
1506653364391,799
1506653364400,788
1506653364408,775
1506653364416,751
1506653364424,734
1506653364432,709
1506653364440,687
1506653364448,668
1506653364457,644
1506653364465,630
1506653364473,613
1506653364481,599
1506653364489,590
1506653364498,576
1506653364506,571
1506653364514,560
1506653364522,551
1506653364526,544
1506653364534,531
1506653364543,526
1506653364551,515
1506653364559,507
1506653364567,503
1506653364575,492
1506653364583,491
1506653364591,486
1506653364599,483
1506653364608,484
1506653364616,481
1506653364624,485
1506653364632,485
1506653364640,487
1506653364649,492
1506653364657,490
1506653364665,495
1506653364673,493
1506653364681,491
1506653364686,493
1506653364694,487
1506653364702,487
1506653364710,481
1506653364718,475
1506653364727,472
1506653364734,462
1506653364743,461
1506653364751,454
1506653364759,449
1506653364767,448
1506653364775,440
1506653364783,441
1506653364792,437
1506653364800,434
1506653364808,435
1506653364816,432
1506653364825,434
1506653364833,433
1506653364841,433
1506653364846,436
1506653364853,432
1506653364861,437
1506653364870,436
1506653364878,435
1506653364886,438
1506653364894,435
1506653364903,439
1506653364911,438
1506653364919,439
1506653364927,440
1506653364935,435
1506653364943,438
1506653364952,436
1506653364960,434
1506653364968,437
1506653364976,433
1506653364985,435
1506653364993,434
1506653365001,432
1506653365009,434
1506653365013,432
1506653365022,434
1506653365031,433
1506653365039,431
1506653365047,434
1506653365055,430
1506653365064,433
1506653365071,432
1506653365079,429
1506653365088,432
1506653365096,427
1506653365104,429
1506653365112,427
1506653365120,425
1506653365128,427
1506653365136,422
1506653365145,425
1506653365153,425
1506653365161,426
1506653365169,435
1506653365173,441
1506653365182,460
1506653365190,480
1506653365198,505
1506653365207,541
1506653365215,575
1506653365222,616
1506653365231,654
1506653365238,690
1506653365247,727
1506653365255,751
1506653365263,776
1506653365272,791
1506653365279,795
1506653365288,799
1506653365296,789
1506653365304,780
1506653365312,763
1506653365321,741
1506653365329,723
1506653365333,696
1506653365341,676
1506653365349,654
1506653365357,632
1506653365367,618
1506653365374,599
1506653365382,589
1506653365391,578
1506653365400,566
1506653365407,561
1506653365416,551
1506653365424,546
1506653365432,537
1506653365440,526
1506653365448,522
1506653365456,509
1506653365464,505
1506653365472,499
1506653365480,491
1506653365488,491
1506653365493,485
1506653365501,486
1506653365509,488
1506653365517,486
1506653365526,493
1506653365534,491
1506653365542,497
1506653365550,498
1506653365558,497
1506653365567,502
1506653365576,497
1506653365584,498
1506653365591,495
1506653365599,488
1506653365607,487
1506653365615,479
1506653365624,475
1506653365631,469
1506653365640,461
1506653365648,458
1506653365652,448
1506653365661,447
1506653365669,442
1506653365677,436
1506653365685,437
1506653365693,431
1506653365701,431
1506653365709,430
1506653365718,429
1506653365726,432
1506653365735,430
1506653365743,435
1506653365751,435
1506653365760,433
1506653365767,437
1506653365776,434
1506653365784,438
1506653365791,438
1506653365800,437
1506653365807,440
1506653365812,437
1506653365820,439
1506653365828,440
1506653365837,438
1506653365845,442
1506653365853,438
1506653365861,439
1506653365870,440
1506653365878,437
1506653365886,439
1506653365894,434
1506653365902,436
1506653365910,437
1506653365918,434
1506653365928,436
1506653365936,432
1506653365944,433
1506653365951,433
1506653365959,429
1506653365968,432
1506653365972,427
1506653365979,429
1506653365988,429
1506653365997,425
1506653366005,428
1506653366013,425
1506653366021,429
1506653366029,433
1506653366037,439
1506653366046,455
1506653366054,469
1506653366062,494
1506653366070,523
1506653366078,554
1506653366086,593
1506653366095,626
1506653366103,663
1506653366112,697
1506653366120,721
1506653366128,746
1506653366132,758
1506653366140,768
1506653366148,768
1506653366156,760
1506653366164,753
1506653366173,733
1506653366180,715
1506653366189,695
1506653366197,669
1506653366205,649
1506653366213,624
1506653366221,605
1506653366229,587
1506653366238,568
1506653366246,558
1506653366254,541
1506653366262,533
1506653366271,523
1506653366279,510
1506653366287,506
1506653366291,495
1506653366299,490
1506653366307,486
1506653366315,479
1506653366323,480
1506653366332,476
1506653366340,478
1506653366348,482
1506653366356,482
1506653366365,489
1506653366373,489
1506653366382,495
1506653366390,501
1506653366398,501
1506653366406,508
1506653366414,507
1506653366423,509
1506653366431,509
1506653366439,504
1506653366447,504
1506653366451,496
1506653366459,492
1506653366468,485
1506653366476,475
1506653366483,471
1506653366492,460
1506653366500,455
1506653366508,449
1506653366516,441
1506653366525,441
1506653366533,434
1506653366541,432
1506653366549,431
1506653366557,427
1506653366566,432
1506653366574,428
1506653366582,430
1506653366590,433
1506653366598,429
1506653366607,434
1506653366615,432
1506653366619,434
1506653366627,436
1506653366635,433
1506653366643,438
1506653366651,435
1506653366660,437
1506653366668,439
1506653366676,435
1506653366684,440
1506653366693,437
1506653366701,437
1506653366709,439
1506653366717,436
1506653366726,439
1506653366734,436
1506653366742,435
1506653366750,435
1506653366758,431
1506653366767,432
1506653366774,426
1506653366779,425
1506653366787,425
1506653366795,421
1506653366803,424
1506653366811,421
1506653366819,422
1506653366827,424
1506653366836,423
1506653366844,432
1506653366852,438
1506653366860,453
1506653366869,473
1506653366877,494
1506653366885,526
1506653366893,557
1506653366901,594
1506653366910,634
1506653366918,666
1506653366926,702
1506653366934,728
1506653366938,751
1506653366947,769
1506653366955,774
1506653366963,778
1506653366971,770
1506653366979,759
1506653366988,746
1506653366996,723
1506653367004,705
1506653367012,679
1506653367020,657
1506653367028,638
1506653367037,614
1506653367045,600
1506653367053,583
1506653367062,570
1506653367069,561
1506653367078,547
1506653367086,542
1506653367093,531
1506653367098,523
1506653367106,517
1506653367114,506
1506653367122,503
1506653367130,494
1506653367138,489
1506653367147,488
1506653367155,481
1506653367164,483
1506653367172,480
1506653367180,481
1506653367189,485
1506653367197,484
1506653367205,492
1506653367213,493
1506653367221,497
1506653367229,501
1506653367237,499
1506653367246,503
1506653367254,501
1506653367258,498
1506653367266,498
1506653367274,489
1506653367282,486
1506653367290,478
1506653367299,471
1506653367307,466
1506653367315,455
1506653367323,453
1506653367332,446
1506653367340,441
1506653367348,440
1506653367356,433
1506653367364,434
1506653367373,431
1506653367380,429
1506653367389,431
1506653367397,429
1506653367406,431
1506653367414,430
1506653367418,431
1506653367426,435
1506653367434,432
1506653367442,436
1506653367450,436
1506653367459,436
1506653367467,439
1506653367475,435
1506653367484,439
1506653367492,436
1506653367500,435
1506653367508,437
1506653367516,432
1506653367524,436
1506653367532,434
1506653367540,432
1506653367549,435
1506653367557,431
1506653367565,433
1506653367573,432
1506653367577,432
1506653367587,433
1506653367594,429
1506653367602,432
1506653367610,430
1506653367618,429
1506653367626,432
1506653367634,428
1506653367643,431
1506653367651,430
1506653367659,428
1506653367668,429
1506653367676,425
1506653367684,428
1506653367692,425
1506653367700,424
1506653367708,426
1506653367717,421
1506653367725,426
1506653367733,428
1506653367737,434
1506653367746,449
1506653367753,462
1506653367762,489
1506653367770,516
1506653367778,550
1506653367787,590
1506653367795,626
1506653367803,671
1506653367811,708
1506653367819,739
1506653367827,771
1506653367835,787
1506653367844,804
1506653367852,811
1506653367860,809
1506653367868,806
1506653367876,789
1506653367885,775
1506653367892,753
1506653367897,730
1506653367905,711
1506653367914,684
1506653367922,666
1506653367930,645
1506653367938,627
1506653367946,615
1506653367954,598
1506653367962,590
1506653367971,579
1506653367979,571
1506653367987,564
1506653367994,550
1506653368003,544
1506653368011,534
1506653368020,524
1506653368028,519
1506653368036,507
1506653368045,505
1506653368053,498
1506653368057,492
1506653368065,492
1506653368073,487
1506653368081,490
1506653368090,489
1506653368098,489
1506653368108,494
1506653368115,492
1506653368123,497
1506653368130,498
1506653368139,497
1506653368147,501
1506653368155,497
1506653368163,498
1506653368171,495
1506653368180,490
1506653368187,488
1506653368196,478
1506653368204,476
1506653368212,467
1506653368216,459
1506653368224,457
1506653368232,447
1506653368240,445
1506653368248,440
1506653368257,435
1506653368267,435
1506653368275,430
1506653368283,431
1506653368291,429
1506653368299,428
1506653368307,429
1506653368314,424
1506653368323,427
1506653368331,426
1506653368339,424
1506653368347,428
1506653368355,425
1506653368363,428
1506653368372,429
1506653368380,429
1506653368384,433
1506653368392,431
1506653368400,435
1506653368408,434
1506653368417,432
1506653368425,436
1506653368433,432
1506653368441,435
1506653368450,434
1506653368458,432
1506653368466,435
1506653368475,432
1506653368483,434
1506653368490,433
1506653368498,430
1506653368507,432
1506653368515,428
1506653368524,429
1506653368532,428
1506653368540,425
1506653368544,428
1506653368552,424
1506653368561,426
1506653368569,425
1506653368577,423
1506653368586,426
1506653368593,421
1506653368602,423
1506653368610,423
1506653368618,423
1506653368626,432
1506653368634,435
1506653368642,449
1506653368650,469
1506653368659,489
1506653368667,522
1506653368675,553
1506653368683,592
1506653368691,632
1506653368699,669
1506653368704,707
1506653368712,735
1506653368720,763
1506653368728,782
1506653368736,791
1506653368744,799
1506653368753,793
1506653368761,785
1506653368769,770
1506653368777,749
1506653368786,731
1506653368794,705
1506653368802,684
1506653368810,661
1506653368818,638
1506653368826,623
1506653368835,603
1506653368843,590
1506653368851,579
1506653368859,566
1506653368863,560
1506653368871,548
1506653368879,542
1506653368888,534
1506653368896,525
1506653368904,521
1506653368912,508
1506653368920,504
1506653368929,498
1506653368937,490
1506653368945,490
1506653368953,485
1506653368961,485
1506653368970,487
1506653368978,486
1506653368986,492
1506653368994,491
1506653369002,497
1506653369010,500
1506653369018,500
1506653369023,506
1506653369031,502
1506653369039,502
1506653369047,501
1506653369055,494
1506653369064,493
1506653369072,484
1506653369080,479
1506653369089,472
1506653369097,462
1506653369105,460
1506653369113,450
1506653369121,447
1506653369130,442
1506653369138,434
1506653369146,436
1506653369154,429
1506653369162,429
1506653369172,428
1506653369180,425
1506653369183,429
1506653369191,427
1506653369200,429
1506653369208,432
1506653369216,429
1506653369224,434
1506653369232,432
1506653369240,435
1506653369248,438
1506653369257,435
1506653369265,440
1506653369273,438
1506653369281,440
1506653369289,441
1506653369298,437
1506653369306,440
1506653369314,437
1506653369322,440
1506653369330,439
1506653369338,434
1506653369342,437
1506653369350,433
1506653369359,433
1506653369368,433
1506653369375,430
1506653369384,432
1506653369392,429
1506653369400,429
1506653369408,428
1506653369416,426
1506653369424,427
1506653369433,424
1506653369441,425
1506653369449,428
1506653369457,427
1506653369466,437
1506653369474,444
1506653369482,460
1506653369490,482
1506653369497,504
1506653369502,538
1506653369510,568
1506653369519,606
1506653369527,644
1506653369536,674
1506653369544,707
1506653369552,729
1506653369560,747
1506653369568,760
1506653369576,761
1506653369584,761
1506653369593,749
1506653369601,735
1506653369609,720
1506653369617,694
1506653369625,675
1506653369634,649
1506653369642,627
1506653369650,607
1506653369658,584
1506653369662,570
1506653369670,552
1506653369679,539
1506653369686,529
1506653369694,515
1506653369702,508
1506653369711,497
1506653369719,491
1506653369727,486
1506653369735,477
1506653369743,478
1506653369751,471
1506653369760,472
1506653369769,475
1506653369777,473
1506653369785,481
1506653369793,483
1506653369801,490
1506653369810,497
1506653369818,498
1506653369822,507
1506653369830,507
1506653369838,509
1506653369846,512
1506653369854,507
1506653369862,508
1506653369871,502
1506653369879,497
1506653369888,494
1506653369896,484
1506653369904,480
1506653369912,470
1506653369920,463
1506653369928,459
1506653369936,449
1506653369944,447
1506653369953,441
1506653369961,437
1506653369970,437
1506653369978,431
1506653369982,434
1506653369990,431
1506653369998,432
1506653370006,434
1506653370014,432
1506653370022,437
1506653370030,436
1506653370039,437
1506653370047,441
1506653370055,437
1506653370063,442
1506653370072,441
1506653370080,441
1506653370088,444
1506653370096,441
1506653370104,445
1506653370113,443
1506653370121,444
1506653370129,445
1506653370137,440
1506653370141,443
1506653370149,441
1506653370157,439
1506653370165,441
1506653370174,436
1506653370182,439
1506653370190,436
1506653370198,435
1506653370207,436
1506653370215,431
1506653370223,433
1506653370231,430
1506653370239,429
1506653370248,431
1506653370256,428
1506653370264,435
1506653370272,441
1506653370281,451
1506653370289,470
1506653370297,489
1506653370305,519
1506653370309,550
1506653370317,586
1506653370326,626
1506653370333,659
1506653370342,698
1506653370350,727
1506653370358,751
1506653370366,772
1506653370375,779
1506653370383,786
1506653370392,784
1506653370400,775
1506653370408,764
1506653370416,743
1506653370424,727
1506653370432,704
1506653370441,681
1506653370449,663
1506653370457,639
1506653370465,624
1506653370470,606
1506653370478,590
1506653370486,580
1506653370494,567
1506653370502,560
1506653370510,549
1506653370518,539
1506653370526,534
1506653370534,521
1506653370542,517
1506653370550,507
1506653370559,500
1506653370567,498
1506653370575,489
1506653370584,491
1506653370592,486
1506653370600,485
1506653370608,489
1506653370616,487
1506653370624,493
1506653370630,494
1506653370638,495
1506653370645,500
1506653370653,498
1506653370661,502
1506653370670,501
1506653370678,497
1506653370686,498
1506653370694,490
1506653370702,488
1506653370710,483
1506653370718,476
1506653370727,473
1506653370735,463
1506653370743,461
1506653370751,454
1506653370759,447
1506653370767,446
1506653370776,438
1506653370784,439
1506653370790,436
1506653370798,433
1506653370805,435
1506653370814,431
1506653370821,434
1506653370830,433
1506653370837,432
1506653370845,437
1506653370854,434
1506653370862,438
1506653370870,438
1506653370879,437
1506653370886,441
1506653370895,437
1506653370903,440
1506653370912,440
1506653370920,438
1506653370928,442
1506653370936,438
1506653370944,442
1506653370948,440
1506653370957,439
1506653370966,442
1506653370974,438
1506653370982,442
1506653370990,441
1506653370998,439
1506653371007,443
1506653371014,437
1506653371022,441
1506653371030,440
1506653371038,437
1506653371046,440
1506653371055,435
1506653371063,437
1506653371071,435
1506653371079,432
1506653371088,434
1506653371096,428
1506653371104,432
1506653371108,432
1506653371116,434
1506653371125,445
1506653371133,454
1506653371141,474
1506653371150,499
1506653371157,528
1506653371167,565
1506653371174,600
1506653371183,642
1506653371190,681
1506653371198,714
1506653371206,748
1506653371214,769
1506653371223,789
1506653371231,800
1506653371239,800
1506653371247,800
1506653371255,786
1506653371263,773
1506653371268,753
1506653371276,730
1506653371283,712
1506653371292,686
1506653371301,668
1506653371309,649
1506653371317,630
1506653371325,621
1506653371334,605
1506653371342,598
1506653371351,590
1506653371359,581
1506653371366,576
1506653371374,564
1506653371383,558
1506653371391,550
1506653371399,538
1506653371407,533
1506653371415,520
1506653371423,514
1506653371427,508
1506653371436,500
1506653371444,500
1506653371452,494
1506653371460,495
1506653371469,494
1506653371477,492
1506653371485,496
1506653371493,492
1506653371501,495
1506653371509,496
1506653371518,495
1506653371527,498
1506653371534,495
1506653371542,495
1506653371551,492
1506653371558,486
1506653371567,484
1506653371575,472
1506653371583,468
1506653371587,462
1506653371595,453
1506653371603,451
1506653371612,442
1506653371620,439
1506653371628,436
1506653371636,430
1506653371644,430
1506653371652,425
1506653371660,425
1506653371669,425
1506653371677,422
1506653371685,426
1506653371695,422
1506653371703,425
1506653371711,428
1506653371720,426
1506653371727,432
1506653371735,430
1506653371743,435
1506653371747,436
1506653371755,435
1506653371763,439
1506653371771,435
1506653371780,438
1506653371788,438
1506653371796,435
1506653371804,438
1506653371812,433
1506653371821,433
1506653371829,433
1506653371837,429
1506653371845,431
1506653371853,428
1506653371861,428
1506653371870,429
1506653371879,425
1506653371887,428
1506653371895,424
1506653371903,427
1506653371906,429
1506653371914,426
1506653371922,430
1506653371931,428
1506653371940,431
1506653371948,432
1506653371956,429
1506653371964,434
1506653371972,432
1506653371981,440
1506653371988,452
1506653371997,466
1506653372005,493
1506653372013,517
1506653372021,553
1506653372029,590
1506653372037,625
1506653372046,666
1506653372054,698
1506653372063,730
1506653372071,755
1506653372075,770
1506653372083,784
1506653372090,784
1506653372100,780
1506653372108,772
1506653372116,754
1506653372124,741
1506653372132,719
1506653372140,700
1506653372148,681
1506653372157,659
1506653372165,644
1506653372173,625
1506653372181,613
1506653372189,602
1506653372197,588
1506653372206,582
1506653372213,571
1506653372221,562
1506653372230,556
1506653372234,542
1506653372243,536
1506653372251,524
1506653372259,514
1506653372267,506
1506653372275,495
1506653372283,493
1506653372292,484
1506653372300,481
1506653372308,480
1506653372316,477
1506653372324,481
1506653372332,481
1506653372340,485
1506653372349,489
1506653372357,489
1506653372366,494
1506653372374,493
1506653372382,495
1506653372389,495
1506653372393,491
1506653372402,492
1506653372410,485
1506653372419,482
1506653372427,479
1506653372435,470
1506653372444,467
1506653372452,459
1506653372460,454
1506653372468,451
1506653372476,443
1506653372484,444
1506653372492,436
1506653372500,434
1506653372509,435
1506653372517,430
1506653372525,434
1506653372534,432
1506653372541,434
1506653372549,437
1506653372553,435
1506653372562,439
1506653372570,438
1506653372578,440
1506653372586,443
1506653372595,440
1506653372603,445
1506653372611,442
1506653372619,442
1506653372627,444
1506653372635,441
1506653372644,444
1506653372652,441
1506653372660,443
1506653372668,444
1506653372677,441
1506653372685,444
1506653372693,442
1506653372701,442
1506653372709,444
1506653372713,439
1506653372721,442
1506653372730,439
1506653372738,438
1506653372746,438
1506653372754,434
1506653372762,437
1506653372771,432
1506653372779,430
1506653372787,431
1506653372795,427
1506653372803,431
1506653372812,431
1506653372820,436
1506653372829,447
1506653372837,458
1506653372845,481
1506653372853,504
1506653372861,534
1506653372869,570
1506653372873,603
1506653372881,643
1506653372889,676
1506653372898,707
1506653372906,735
1506653372914,752
1506653372922,768
1506653372930,772
1506653372938,771
1506653372946,767
1506653372955,750
1506653372963,737
1506653372971,714
1506653372980,692
1506653372988,673
1506653372996,647
1506653373004,629
1506653373012,607
1506653373020,589
1506653373029,578
1506653373033,562
1506653373041,554
1506653373049,544
1506653373057,533
1506653373066,528
1506653373074,517
1506653373082,513
1506653373090,504
1506653373099,495
1506653373108,493
1506653373115,484
1506653373123,484
1506653373132,481
1506653373140,481
1506653373148,484
1506653373156,482
1506653373164,489
1506653373172,490
1506653373181,493
1506653373189,499
1506653373193,498
1506653373201,503
1506653373209,502
1506653373217,500
1506653373226,501
1506653373234,493
1506653373242,492
1506653373250,486
1506653373258,479
1506653373266,474
1506653373275,464
1506653373283,461
1506653373290,454
1506653373299,448
1506653373307,446
1506653373315,438
1506653373323,438
1506653373331,435
1506653373339,434
1506653373348,436
1506653373352,432
1506653373361,435
1506653373368,434
1506653373377,435
1506653373385,438
1506653373394,435
1506653373402,440
1506653373410,439
1506653373418,439
1506653373426,443
1506653373434,440
1506653373443,444
1506653373451,444
1506653373459,442
1506653373467,447
1506653373476,443
1506653373484,445
1506653373491,444
1506653373500,443
1506653373508,445
1506653373513,440
1506653373521,442
1506653373529,440
1506653373536,438
1506653373545,439
1506653373553,435
1506653373561,435
1506653373569,432
1506653373578,429
1506653373586,431
1506653373594,425
1506653373602,430
1506653373610,439
1506653373618,444
1506653373626,457
1506653373635,468
1506653373643,490
1506653373651,515
1506653373659,546
1506653373667,583
1506653373676,614
1506653373681,651
1506653373689,680
1506653373698,706
1506653373705,733
1506653373713,746
1506653373721,758
1506653373729,762
1506653373738,757
1506653373746,752
1506653373754,735
1506653373762,720
1506653373770,700
1506653373778,677
1506653373787,659
1506653373795,635
1506653373803,618
1506653373811,599
1506653373819,581
1506653373827,570
1506653373835,555
1506653373839,546
1506653373848,536
1506653373857,526
1506653373864,519
1506653373873,507
1506653373881,501
1506653373889,493
1506653373897,485
1506653373905,483
1506653373913,475
1506653373921,475
1506653373930,475
1506653373938,473
1506653373946,478
1506653373954,477
1506653373962,483
1506653373970,487
1506653373979,489
1506653373987,495
1506653373995,494
1506653373999,498
1506653374007,499
1506653374015,495
1506653374024,500
1506653374032,493
1506653374040,488
1506653374048,480
1506653374057,470
1506653374065,466
1506653374073,455
1506653374081,451
1506653374089,446
1506653374098,438
1506653374106,439
1506653374114,431
1506653374122,431
1506653374130,429
1506653374138,426
1506653374147,428
1506653374155,425
1506653374160,426
1506653374168,428
1506653374176,427
1506653374184,432
1506653374192,430
1506653374200,434
1506653374208,436
1506653374217,434
1506653374226,438
1506653374234,436
1506653374242,438
1506653374250,440
1506653374258,437
1506653374266,441
1506653374274,437
1506653374282,440
1506653374290,440
1506653374298,436
1506653374307,439
1506653374314,436
1506653374319,436
1506653374327,437
1506653374335,433
1506653374343,436
1506653374351,432
1506653374360,432
1506653374368,433
1506653374377,428
1506653374385,431
1506653374394,426
1506653374402,426
1506653374410,426
1506653374417,423
1506653374426,426
1506653374434,422
1506653374442,425
1506653374450,429
1506653374458,432
1506653374466,447
1506653374474,460
1506653374479,483
1506653374486,512
1506653374494,541
1506653374503,582
1506653374511,617
1506653374519,657
1506653374528,695
1506653374536,724
1506653374544,756
1506653374552,773
1506653374560,786
1506653374568,794
1506653374577,789
1506653374585,786
1506653374593,771
1506653374602,755
1506653374610,737
1506653374618,713
1506653374626,695
1506653374634,669
1506653374638,650
1506653374646,633
1506653374654,612
1506653374663,603
1506653374671,586
1506653374679,577
1506653374687,570
1506653374695,558
1506653374703,553
1506653374711,542
1506653374719,534
1506653374728,527
1506653374736,515
1506653374744,509
1506653374752,499
1506653374760,494
1506653374769,490
1506653374777,483
1506653374786,483
1506653374794,479
1506653374798,480
1506653374806,482
1506653374815,481
1506653374823,486
1506653374831,485
1506653374839,489
1506653374848,492
1506653374856,489
1506653374864,492
1506653374872,488
1506653374880,487
1506653374888,486
1506653374896,478
1506653374904,477
1506653374913,468
1506653374921,464
1506653374930,459
1506653374937,450
1506653374945,450
1506653374954,441
1506653374958,438
1506653374966,436
1506653374974,431
1506653374983,433
1506653374990,429
1506653374999,429
1506653375007,430
1506653375015,427
1506653375024,431
1506653375032,428
1506653375040,429
1506653375048,433
1506653375056,431
1506653375064,436
1506653375073,434
1506653375081,435
1506653375088,438
1506653375097,435
1506653375106,439
1506653375114,437
1506653375118,439
1506653375126,440
1506653375134,436
1506653375142,440
1506653375150,436
1506653375159,438
1506653375167,440
1506653375175,435
1506653375183,438
1506653375191,435
1506653375200,434
1506653375208,435
1506653375216,431
1506653375224,433
1506653375233,430
1506653375241,429
1506653375249,431
1506653375257,426
1506653375265,429
1506653375273,425
1506653375281,425
1506653375286,426
1506653375293,422
1506653375302,427
1506653375310,428
1506653375318,434
1506653375326,446
1506653375334,458
1506653375343,483
1506653375351,509
1506653375360,541
1506653375368,581
1506653375376,615
1506653375384,658
1506653375392,693
1506653375401,725
1506653375409,754
1506653375417,771
1506653375425,788
1506653375433,792
1506653375441,790
1506653375446,786
1506653375454,769
1506653375462,757
1506653375470,736
1506653375478,713
1506653375487,694
1506653375495,669
1506653375503,651
1506653375511,631
1506653375519,614
1506653375527,603
1506653375535,587
1506653375544,579
1506653375552,568
1506653375560,559
1506653375568,553
1506653375576,541
1506653375585,535
1506653375593,525
1506653375601,515
1506653375605,509
1506653375613,497
1506653375621,494
1506653375630,486
1506653375638,481
1506653375646,482
1506653375654,476
1506653375663,479
1506653375670,480
1506653375679,479
1506653375687,486
1506653375695,484
1506653375703,490
1506653375711,489
1506653375719,490
1506653375728,493
1506653375736,488
1506653375744,490
1506653375752,484
1506653375760,479
1506653375764,477
1506653375773,467
1506653375781,463
1506653375790,457
1506653375798,451
1506653375806,448
1506653375814,440
1506653375822,439
1506653375830,434
1506653375839,430
1506653375847,430
1506653375855,425
1506653375863,428
1506653375872,427
1506653375879,427
1506653375888,431
1506653375896,429
1506653375904,433
1506653375912,433
1506653375920,434
1506653375925,439
1506653375933,436
1506653375941,441
1506653375949,440
1506653375957,439
1506653375966,442
1506653375974,439
1506653375982,442
1506653375990,442
1506653375998,439
1506653376006,443
1506653376015,440
1506653376023,442
1506653376031,441
1506653376039,439
1506653376047,442
1506653376055,436
1506653376064,438
1506653376072,437
1506653376080,434
1506653376085,436
1506653376092,432
1506653376100,433
1506653376109,431
1506653376117,429
1506653376125,430
1506653376133,425
1506653376141,429
1506653376149,430
1506653376158,433
1506653376166,447
1506653376175,457
1506653376183,479
1506653376191,505
1506653376199,533
1506653376207,572
1506653376215,604
1506653376223,644
1506653376231,678
1506653376239,707
1506653376244,736
1506653376252,752
1506653376260,767
1506653376269,772
1506653376277,769
1506653376285,764
1506653376293,747
1506653376301,732
1506653376309,712
1506653376317,687
1506653376326,668
1506653376334,642
1506653376342,623
1506653376350,603
1506653376358,584
1506653376367,571
1506653376375,555
1506653376383,546
1506653376391,537
1506653376399,526
1506653376404,520
1506653376412,509
1506653376420,504
1506653376428,497
1506653376436,489
1506653376444,488
1506653376452,479
1506653376461,479
1506653376469,479
1506653376478,478
1506653376486,483
1506653376493,483
1506653376501,489
1506653376510,493
1506653376518,496
1506653376526,503
1506653376534,503
1506653376542,507
1506653376551,509
1506653376559,506
1506653376563,508
1506653376572,501
1506653376580,499
1506653376588,494
1506653376595,485
1506653376604,481
1506653376612,470
1506653376620,465
1506653376628,458
1506653376636,449
1506653376646,448
1506653376654,437
1506653376662,436
1506653376670,434
1506653376678,429
1506653376686,431
1506653376694,427
1506653376702,429
1506653376710,430
1506653376718,428
1506653376723,433
1506653376731,432
1506653376740,435
1506653376749,438
1506653376756,437
1506653376764,443
1506653376772,442
1506653376781,444
1506653376788,446
1506653376797,443
1506653376806,446
1506653376814,443
1506653376822,445
1506653376830,444
1506653376838,441
1506653376846,444
1506653376855,438
1506653376863,439
1506653376871,437
1506653376879,432
1506653376883,434
1506653376891,430
1506653376899,429
1506653376907,429
1506653376915,426
1506653376924,432
1506653376933,432
1506653376940,442
1506653376949,456
1506653376957,470
1506653376965,497
1506653376973,521
1506653376982,555
1506653376989,591
1506653376998,624
1506653377006,661
1506653377014,690
1506653377022,717
1506653377030,739
1506653377038,751
1506653377043,761
1506653377051,758
1506653377059,752
1506653377067,743
1506653377075,724
1506653377084,709
1506653377091,686
1506653377101,664
1506653377108,644
1506653377118,620
1506653377126,605
1506653377133,585
1506653377142,571
1506653377150,559
1506653377158,544
1506653377166,537
1506653377174,525
1506653377182,516
1506653377190,509
1506653377198,498
1506653377202,493
1506653377210,484
1506653377219,480
1506653377228,478
1506653377236,472
1506653377244,475
1506653377252,472
1506653377260,476
1506653377268,481
1506653377276,481
1506653377286,489
1506653377293,491
1506653377300,495
1506653377309,500
1506653377318,498
1506653377326,502
1506653377333,499
1506653377341,498
1506653377350,496
1506653377357,487
1506653377365,486
1506653377370,477
1506653377378,471
1506653377387,467
1506653377395,457
1506653377403,455
1506653377411,447
1506653377419,443
1506653377428,441
1506653377436,434
1506653377444,435
1506653377453,430
1506653377461,429
1506653377469,432
1506653377478,428
1506653377486,432
1506653377494,431
1506653377501,431
1506653377509,435
1506653377518,433
1506653377525,437
1506653377530,436
1506653377538,438
1506653377546,440
1506653377554,437
1506653377563,441
1506653377571,440
1506653377580,439
1506653377588,442
1506653377596,438
1506653377603,442
1506653377612,440
1506653377620,442
1506653377628,444
1506653377636,441
1506653377646,446
1506653377654,443
1506653377661,443
1506653377669,443
1506653377678,438
1506653377686,440
1506653377689,436
1506653377698,435
1506653377706,436
1506653377714,432
1506653377722,439
1506653377730,444
1506653377739,456
1506653377747,476
1506653377755,495
1506653377763,529
1506653377772,562
1506653377780,599
1506653377788,641
1506653377797,675
1506653377805,713
1506653377813,742
1506653377821,766
1506653377830,785
1506653377837,791
1506653377846,798
1506653377850,793
1506653377858,783
1506653377866,771
1506653377874,749
1506653377883,732
1506653377891,708
1506653377899,685
1506653377907,669
1506653377915,646
1506653377923,631
1506653377931,613
1506653377940,599
1506653377948,589
1506653377956,574
1506653377964,567
1506653377973,556
1506653377981,544
1506653377989,538
1506653377997,524
1506653378005,519
1506653378009,510
1506653378018,502
1506653378026,498
1506653378034,488
1506653378042,487
1506653378051,482
1506653378059,479
1506653378067,480
1506653378075,477
1506653378083,481
1506653378091,481
1506653378099,483
1506653378107,488
1506653378115,486
1506653378124,492
1506653378132,492
1506653378141,491
1506653378149,494
1506653378157,487
1506653378165,486
1506653378169,482
1506653378177,475
1506653378186,472
1506653378193,462
1506653378201,459
1506653378209,454
1506653378218,447
1506653378227,446
1506653378235,439
1506653378243,439
1506653378251,437
1506653378259,433
1506653378268,435
1506653378275,431
1506653378284,434
1506653378292,432
1506653378300,432
1506653378309,435
1506653378317,430
1506653378325,434
1506653378329,435
1506653378337,433
1506653378345,437
1506653378354,434
1506653378362,437
1506653378370,437
1506653378378,435
1506653378386,439
1506653378394,436
1506653378403,438
1506653378411,438
1506653378419,436
1506653378427,440
1506653378435,435
1506653378443,437
1506653378451,435
1506653378460,433
1506653378468,434
1506653378477,430
1506653378484,431
1506653378489,429
1506653378497,427
1506653378506,431
1506653378513,429
1506653378521,436
1506653378530,445
1506653378538,456
1506653378546,479
1506653378554,500
1506653378562,533
1506653378571,568
1506653378579,604
1506653378587,645
1506653378595,678
1506653378603,713
1506653378611,741
1506653378619,760
1506653378627,779
1506653378635,783
1506653378643,784
1506653378648,779
1506653378656,763
1506653378664,751
1506653378673,729
1506653378681,710
1506653378688,689
1506653378697,665
1506653378705,648
1506653378713,626
1506653378721,611
1506653378729,597
1506653378737,581
1506653378746,573
1506653378754,559
1506653378762,551
1506653378770,542
1506653378779,529
1506653378787,523
1506653378795,510
1506653378803,503
1506653378807,496
1506653378815,486
1506653378823,485
1506653378832,478
1506653378840,478
1506653378848,479
1506653378856,478
1506653378864,483
1506653378873,483
1506653378882,488
1506653378890,492
1506653378898,492
1506653378906,498
1506653378914,495
1506653378923,497
1506653378931,497
1506653378939,491
1506653378947,490
1506653378955,481
1506653378964,478
1506653378968,472
1506653378976,462
1506653378984,459
1506653378992,450
1506653379000,448
1506653379009,444
1506653379017,437
1506653379025,438
1506653379033,432
1506653379041,433
1506653379050,433
1506653379058,430
1506653379066,434
1506653379074,432
1506653379082,434
1506653379091,437
1506653379099,434
1506653379107,439
1506653379115,436
1506653379123,440
1506653379131,441
1506653379136,438
1506653379144,443
1506653379152,440
1506653379160,442
1506653379168,444
1506653379177,441
1506653379185,444
1506653379193,440
1506653379201,440
1506653379209,440
1506653379217,435
1506653379226,437
1506653379233,432
1506653379242,431
1506653379250,432
1506653379259,426
1506653379267,428
1506653379275,425
1506653379283,429
1506653379291,436
1506653379296,444
1506653379304,463
1506653379312,481
1506653379320,507
1506653379329,540
1506653379337,570
1506653379345,609
1506653379353,642
1506653379361,675
1506653379369,706
1506653379378,725
1506653379386,745
1506653379394,752
1506653379402,756
1506653379410,753
1506653379418,739
1506653379426,728
1506653379435,707
1506653379443,687
1506653379451,666
1506653379456,640
1506653379464,622
1506653379471,600
1506653379481,582
1506653379488,568
1506653379496,550
1506653379505,542
1506653379513,527
1506653379521,515
1506653379529,507
1506653379537,494
1506653379545,490
1506653379554,480
1506653379562,475
1506653379570,472
1506653379578,467
1506653379586,468
1506653379595,466
1506653379603,469
1506653379610,474
1506653379615,474
1506653379623,484
1506653379632,487
1506653379640,491
1506653379649,498
1506653379656,497
1506653379664,502
1506653379673,501
1506653379681,500
1506653379688,500
1506653379696,492
1506653379704,490
1506653379713,481
1506653379721,475
1506653379729,471
1506653379737,459
1506653379746,456
1506653379754,448
1506653379762,442
1506653379770,440
1506653379775,432
1506653379783,433
1506653379790,428
1506653379800,427
1506653379808,428
1506653379816,424
1506653379825,429
1506653379832,428
1506653379840,429
1506653379849,433
1506653379857,430
1506653379865,435
1506653379873,435
1506653379881,436
1506653379889,440
1506653379898,437
1506653379906,441
1506653379914,440
1506653379922,440
1506653379930,442
1506653379934,440
1506653379943,446
1506653379951,445
1506653379959,440
1506653379967,440
1506653379975,434
1506653379984,436
1506653379993,432
1506653380001,429
1506653380009,431
1506653380017,425
1506653380025,427
1506653380033,426
1506653380041,428
1506653380049,438
1506653380057,444
1506653380066,464
1506653380074,484
1506653380082,511
1506653380090,545
1506653380094,577
1506653380102,618
1506653380110,652
1506653380119,686
1506653380127,719
1506653380135,739
1506653380143,759
1506653380151,769
1506653380159,771
1506653380168,770
1506653380177,757
1506653380185,747
1506653380193,728
1506653380201,708
1506653380209,689
1506653380217,662
1506653380225,643
1506653380233,623
1506653380241,604
1506653380249,591
1506653380254,573
1506653380262,565
1506653380270,553
1506653380279,542
1506653380287,535
1506653380295,521
1506653380304,516
1506653380311,505
1506653380319,495
1506653380328,490
1506653380336,480
1506653380344,477
1506653380353,473
1506653380361,470
1506653380370,472
1506653380377,469
1506653380386,474
1506653380393,475
1506653380402,477
1506653380409,483
1506653380414,482
1506653380422,487
1506653380430,487
1506653380438,485
1506653380447,487
1506653380455,482
1506653380463,481
1506653380471,475
1506653380479,468
1506653380488,465
1506653380495,457
1506653380503,454
1506653380512,448
1506653380521,442
1506653380528,441
1506653380537,433
1506653380546,436
1506653380553,433
1506653380561,432
1506653380568,436
1506653380577,432
1506653380581,434
1506653380589,435
1506653380597,433
1506653380605,439
1506653380614,435
1506653380622,439
1506653380630,440
1506653380639,438
1506653380647,443
1506653380655,441
1506653380663,443
1506653380672,445
1506653380680,443
1506653380688,446
1506653380696,442
1506653380706,444
1506653380714,443
1506653380721,442
1506653380730,445
1506653380737,440
1506653380741,443
1506653380750,443
1506653380758,437
1506653380766,439
1506653380774,434
1506653380782,434
1506653380790,432
1506653380799,428
1506653380807,430
1506653380815,425
1506653380823,427
1506653380831,426
1506653380839,427
1506653380848,437
1506653380856,444
1506653380864,463
1506653380872,486
1506653380881,511
1506653380890,546
1506653380897,579
1506653380901,619
1506653380910,657
1506653380918,689
1506653380926,724
1506653380934,745
1506653380942,765
1506653380950,778
1506653380959,779
1506653380967,780
1506653380975,769
1506653380983,758
1506653380991,741
1506653380999,718
1506653381008,700
1506653381016,676
1506653381024,656
1506653381032,638
1506653381040,617
1506653381048,605
1506653381056,588
1506653381060,577
1506653381069,567
1506653381077,555
1506653381085,549
1506653381093,536
1506653381102,528
1506653381110,519
1506653381118,506
1506653381126,502
1506653381134,491
1506653381142,486
1506653381151,482
1506653381159,475
1506653381167,478
1506653381176,473
1506653381184,476
1506653381192,479
1506653381200,479
1506653381208,485
1506653381216,484
1506653381220,488
1506653381228,492
1506653381236,488
1506653381245,493
1506653381253,489
1506653381261,488
1506653381269,486
1506653381278,481
1506653381286,478
1506653381294,469
1506653381302,464
1506653381310,458
1506653381318,449
1506653381327,448
1506653381335,439
1506653381343,436
1506653381351,434
1506653381359,428
1506653381367,430
1506653381376,426
1506653381380,426
1506653381388,427
1506653381396,425
