time,value
1506652693844,496
1506652693852,504
1506652693860,503
1506652693868,506
1506652693876,508
1506652693880,505
1506652693888,508
1506652693897,502
1506652693905,502
1506652693914,501
1506652693922,495
1506652693930,497
1506652693938,490
1506652693946,488
1506652693954,487
1506652693962,480
1506652693971,482
1506652693979,476
1506652693987,475
1506652693995,475
1506652694004,470
1506652694012,474
1506652694020,469
1506652694028,470
1506652694036,472
1506652694040,466
1506652694049,472
1506652694057,469
1506652694065,470
1506652694073,473
1506652694081,470
1506652694089,476
1506652694097,473
1506652694106,475
1506652694115,478
1506652694122,475
1506652694131,480
1506652694139,477
1506652694147,479
1506652694155,481
1506652694163,477
1506652694171,483
1506652694180,480
1506652694188,481
1506652694196,483
1506652694202,480
1506652694209,485
1506652694217,483
1506652694225,483
1506652694233,485
1506652694241,480
1506652694249,485
1506652694258,481
1506652694266,481
1506652694274,484
1506652694282,480
1506652694290,484
1506652694298,480
1506652694307,482
1506652694315,485
1506652694323,480
1506652694331,486
1506652694339,482
1506652694347,483
1506652694355,489
1506652694360,487
1506652694368,496
1506652694376,499
1506652694384,506
1506652694392,515
1506652694401,519
1506652694409,531
1506652694417,536
1506652694425,543
1506652694433,550
1506652694441,549
1506652694449,555
1506652694458,551
1506652694466,549
1506652694474,549
1506652694482,540
1506652694491,538
1506652694500,529
1506652694508,523
1506652694516,518
1506652694520,505
1506652694529,503
1506652694536,492
1506652694545,486
1506652694554,484
1506652694561,474
1506652694569,474
1506652694577,468
1506652694585,467
1506652694594,467
1506652694602,462
1506652694610,467
1506652694617,466
1506652694626,469
1506652694634,474
1506652694642,473
1506652694650,481
1506652694658,483
1506652694667,486
1506652694675,492
1506652694679,491
1506652694687,498
1506652694695,499
1506652694704,501
1506652694712,506
1506652694720,502
1506652694728,508
1506652694737,504
1506652694745,504
1506652694753,506
1506652694761,500
1506652694769,504
1506652694778,500
1506652694786,498
1506652694794,498
1506652694802,493
1506652694810,496
1506652694818,491
1506652694827,490
1506652694835,492
1506652694843,486
1506652694847,490
1506652694855,486
1506652694864,484
1506652694872,486
1506652694880,481
1506652694888,485
1506652694896,482
1506652694906,482
1506652694914,485
1506652694921,480
1506652694930,486
1506652694937,483
1506652694946,482
1506652694954,487
1506652694962,482
1506652694970,488
1506652694978,486
1506652694987,486
1506652694995,489
1506652695003,486
1506652695008,491
1506652695016,488
1506652695024,489
1506652695032,492
1506652695040,488
1506652695048,492
1506652695056,491
1506652695064,490
1506652695074,494
1506652695081,489
1506652695089,494
1506652695098,491
1506652695106,490
1506652695114,493
1506652695122,488
1506652695130,492
1506652695138,490
1506652695146,489
1506652695154,492
1506652695162,487
1506652695167,489
1506652695175,488
1506652695183,488
1506652695191,494
1506652695199,492
1506652695209,501
1506652695217,503
1506652695224,508
1506652695232,519
1506652695241,522
1506652695250,534
1506652695258,539
1506652695266,545
1506652695274,554
1506652695281,553
1506652695290,559
1506652695298,557
1506652695306,555
1506652695314,554
1506652695322,546
1506652695327,545
1506652695335,537
1506652695343,529
1506652695351,525
1506652695359,513
1506652695367,510
1506652695375,501
1506652695384,494
1506652695392,493
1506652695400,483
1506652695410,483
1506652695418,478
1506652695425,474
1506652695434,476
1506652695442,470
1506652695450,476
1506652695459,475
1506652695466,476
1506652695474,482
1506652695482,481
1506652695486,488
1506652695494,490
1506652695503,492
1506652695511,500
1506652695519,499
1506652695527,506
1506652695535,507
1506652695544,508
1506652695553,515
1506652695560,512
1506652695569,516
1506652695577,515
1506652695585,514
1506652695593,516
1506652695602,512
1506652695610,514
1506652695617,510
1506652695626,507
1506652695634,509
1506652695642,501
1506652695646,504
1506652695654,499
1506652695662,496
1506652695670,497
1506652695679,491
1506652695687,492
1506652695695,489
1506652695704,487
1506652695712,490
1506652695720,485
1506652695728,489
1506652695736,487
1506652695744,485
1506652695752,490
1506652695760,485
1506652695769,489
1506652695777,488
1506652695785,487
1506652695794,491
1506652695802,487
1506652695806,492
1506652695814,491
1506652695822,490
1506652695831,495
1506652695839,490
1506652695847,495
1506652695855,494
1506652695863,492
1506652695872,496
1506652695880,493
1506652695888,496
1506652695896,495
1506652695904,494
1506652695912,498
1506652695921,494
1506652695929,498
1506652695937,498
1506652695946,495
1506652695954,501
1506652695962,496
1506652695966,498
1506652695974,497
1506652695982,494
1506652695990,498
1506652695999,495
1506652696007,500
1506652696015,503
1506652696023,506
1506652696031,518
1506652696039,521
1506652696047,535
1506652696055,544
1506652696064,552
1506652696072,568
1506652696080,573
1506652696088,584
1506652696096,589
1506652696105,590
1506652696113,596
1506652696120,591
1506652696125,592
1506652696134,586
1506652696142,576
1506652696150,573
1506652696158,560
1506652696167,553
1506652696175,543
1506652696183,529
1506652696191,524
1506652696199,510
1506652696208,504
1506652696215,496
1506652696224,487
1506652696232,486
1506652696240,477
1506652696249,478
1506652696257,476
1506652696265,473
1506652696273,478
1506652696281,476
1506652696286,482
1506652696293,486
1506652696301,489
1506652696310,499
1506652696317,501
1506652696326,510
1506652696335,516
1506652696343,518
1506652696351,529
1506652696359,528
1506652696367,533
1506652696375,536
1506652696384,534
1506652696392,539
1506652696400,533
1506652696408,534
1506652696416,533
1506652696425,527
1506652696433,528
1506652696441,520
1506652696445,518
1506652696453,513
1506652696461,506
1506652696470,506
1506652696478,498
1506652696486,498
1506652696494,495
1506652696502,490
1506652696511,492
1506652696519,486
1506652696527,488
1506652696535,486
1506652696543,482
1506652696552,486
1506652696560,481
1506652696568,483
1506652696576,484
1506652696585,483
1506652696592,488
1506652696601,484
1506652696605,487
1506652696613,489
1506652696621,486
1506652696629,492
1506652696638,488
1506652696646,491
1506652696654,492
1506652696662,489
1506652696670,496
1506652696679,492
1506652696687,495
1506652696695,496
1506652696703,494
1506652696711,499
1506652696719,495
1506652696727,499
1506652696736,500
1506652696744,496
1506652696752,501
1506652696760,496
1506652696768,498
1506652696772,498
1506652696780,495
1506652696789,501
1506652696797,499
1506652696806,507
1506652696814,514
1506652696822,522
1506652696830,540
1506652696838,549
1506652696846,568
1506652696854,585
1506652696862,596
1506652696871,615
1506652696879,623
1506652696887,634
1506652696895,640
1506652696904,639
1506652696912,642
1506652696920,633
1506652696928,626
1506652696932,616
1506652696940,598
1506652696948,589
1506652696957,569
1506652696965,554
1506652696973,539
1506652696981,520
1506652696989,511
1506652696997,495
1506652697006,484
1506652697014,476
1506652697022,465
1506652697030,463
1506652697038,455
1506652697047,456
1506652697055,458
1506652697063,456
1506652697071,465
1506652697079,467
1506652697087,476
1506652697092,485
1506652697100,491
1506652697109,505
1506652697117,510
1506652697125,521
1506652697132,530
1506652697141,533
1506652697149,544
1506652697157,544
1506652697165,548
1506652697173,552
1506652697182,548
1506652697190,550
1506652697198,544
1506652697207,542
1506652697215,539
1506652697222,530
1506652697231,529
1506652697239,518
1506652697247,514
1506652697251,510
1506652697259,500
1506652697267,498
1506652697276,489
1506652697284,487
1506652697292,484
1506652697301,476
1506652697309,479
1506652697317,473
1506652697326,473
1506652697334,474
1506652697342,471
1506652697350,476
1506652697358,474
1506652697367,475
1506652697375,478
1506652697383,475
1506652697391,481
1506652697399,479
1506652697407,481
1506652697412,486
1506652697420,483
1506652697428,490
1506652697436,489
1506652697444,492
1506652697452,494
1506652697460,492
1506652697469,498
1506652697477,495
1506652697485,498
1506652697493,501
1506652697501,497
1506652697510,503
1506652697518,499
1506652697527,501
1506652697535,502
1506652697543,498
1506652697551,502
1506652697559,498
1506652697567,499
1506652697571,504
1506652697580,505
1506652697588,518
1506652697596,527
1506652697604,543
1506652697613,562
1506652697621,577
1506652697629,601
1506652697637,618
1506652697645,638
1506652697653,655
1506652697662,664
1506652697670,677
1506652697678,677
1506652697686,677
1506652697694,674
1506652697702,658
1506652697710,650
1506652697718,630
1506652697726,610
1506652697730,593
1506652697739,567
1506652697747,551
1506652697756,527
1506652697764,508
1506652697772,494
1506652697780,474
1506652697789,467
1506652697797,453
1506652697805,446
1506652697813,444
1506652697821,437
1506652697830,441
1506652697838,442
1506652697846,447
1506652697854,456
1506652697862,462
1506652697870,477
1506652697879,484
1506652697887,496
1506652697891,511
1506652697899,517
1506652697907,533
1506652697915,541
1506652697924,548
1506652697932,558
1506652697940,558
1506652697948,565
1506652697956,563
1506652697965,562
1506652697972,563
1506652697981,554
1506652697989,554
1506652697997,543
1506652698006,535
1506652698014,530
1506652698021,518
1506652698029,514
1506652698038,504
1506652698046,496
1506652698050,493
1506652698058,483
1506652698066,483
1506652698074,476
1506652698083,473
1506652698091,474
1506652698100,468
1506652698108,472
1506652698117,469
1506652698124,468
1506652698133,473
1506652698141,469
1506652698149,476
1506652698157,479
1506652698165,481
1506652698173,486
1506652698181,482
1506652698190,488
1506652698198,487
1506652698206,488
1506652698210,494
1506652698219,490
1506652698226,497
1506652698234,495
1506652698243,496
1506652698251,500
1506652698259,497
1506652698267,503
1506652698275,500
1506652698285,500
1506652698292,503
1506652698301,499
1506652698309,506
1506652698318,507
1506652698325,513
1506652698333,526
1506652698341,534
1506652698349,554
1506652698357,571
1506652698365,591
1506652698373,616
1506652698378,633
1506652698386,657
1506652698394,671
1506652698402,682
1506652698411,693
1506652698419,691
1506652698427,691
1506652698435,681
1506652698443,666
1506652698451,653
1506652698459,628
1506652698469,611
1506652698477,585
1506652698485,560
1506652698494,541
1506652698501,514
1506652698509,498
1506652698518,479
1506652698525,462
1506652698533,453
1506652698538,439
1506652698546,435
1506652698554,429
1506652698563,428
1506652698571,433
1506652698579,433
1506652698587,443
1506652698595,451
1506652698603,459
1506652698612,475
1506652698620,484
1506652698628,501
1506652698636,512
1506652698645,523
1506652698653,538
1506652698661,543
1506652698669,555
1506652698678,560
1506652698685,563
1506652698694,569
1506652698698,563
1506652698706,563
1506652698714,557
1506652698722,549
1506652698731,544
1506652698739,532
1506652698747,526
1506652698755,516
1506652698763,506
1506652698771,500
1506652698779,488
1506652698787,484
1506652698795,475
1506652698804,468
1506652698812,468
1506652698820,459
1506652698829,460
1506652698837,458
1506652698845,454
1506652698853,458
1506652698857,453
1506652698865,458
1506652698873,458
1506652698881,459
1506652698890,466
1506652698898,464
1506652698906,471
1506652698915,472
1506652698923,474
1506652698931,481
1506652698939,480
1506652698947,485
1506652698956,486
1506652698964,487
1506652698972,493
1506652698980,490
1506652698988,495
1506652698996,494
1506652699005,494
1506652699013,502
1506652699017,503
1506652699025,516
1506652699033,528
1506652699041,543
1506652699049,566
1506652699057,585
1506652699066,612
1506652699074,635
1506652699082,657
1506652699090,681
1506652699098,692
1506652699108,707
1506652699116,711
1506652699124,708
1506652699131,706
1506652699140,690
1506652699148,676
1506652699156,654
1506652699164,629
1506652699172,609
1506652699176,579
1506652699184,557
1506652699193,533
1506652699201,508
1506652699210,494
1506652699218,474
1506652699226,464
1506652699234,451
1506652699242,442
1506652699250,441
1506652699258,434
1506652699267,437
1506652699275,439
1506652699284,442
1506652699291,454
1506652699299,457
1506652699308,471
1506652699316,482
1506652699324,491
1506652699332,507
1506652699336,513
1506652699345,525
1506652699352,534
1506652699361,540
1506652699369,550
1506652699377,549
1506652699385,554
1506652699393,554
1506652699402,549
1506652699410,551
1506652699418,541
1506652699427,537
1506652699435,530
1506652699443,519
1506652699451,515
1506652699459,502
1506652699467,497
1506652699476,489
1506652699484,479
1506652699492,478
1506652699496,467
1506652699504,466
1506652699512,463
1506652699520,457
1506652699529,461
1506652699537,457
1506652699546,458
1506652699554,459
1506652699562,457
1506652699570,463
1506652699578,461
1506652699586,466
1506652699594,469
1506652699603,469
1506652699611,477
1506652699619,475
1506652699627,481
1506652699635,484
1506652699643,485
1506652699651,491
1506652699655,488
1506652699664,493
1506652699672,494
1506652699680,492
1506652699688,497
1506652699696,492
1506652699705,495
1506652699713,497
1506652699721,498
1506652699729,509
1506652699737,514
1506652699745,531
1506652699754,549
1506652699762,569
1506652699770,597
1506652699778,619
1506652699786,649
1506652699795,673
1506652699803,690
1506652699811,711
1506652699816,717
1506652699824,722
1506652699832,720
1506652699840,708
1506652699848,699
1506652699856,675
1506652699864,654
1506652699873,629
1506652699881,600
1506652699889,579
1506652699897,549
1506652699906,527
1506652699914,506
1506652699922,483
1506652699930,472
1506652699938,456
1506652699947,450
1506652699955,445
1506652699963,438
1506652699971,441
1506652699975,439
1506652699983,445
1506652699991,452
1506652700000,456
1506652700008,470
1506652700017,476
1506652700025,489
1506652700033,501
1506652700041,507
1506652700049,522
1506652700058,528
1506652700066,537
1506652700074,544
1506652700082,544
1506652700090,551
1506652700098,546
1506652700107,546
1506652700115,544
1506652700122,535
1506652700131,535
1506652700139,524
1506652700144,518
1506652700152,512
1506652700160,500
1506652700168,498
1506652700176,487
1506652700184,482
1506652700192,477
1506652700200,467
1506652700209,467
1506652700217,459
1506652700226,457
1506652700234,457
1506652700242,451
1506652700251,455
1506652700258,454
1506652700266,456
1506652700274,458
1506652700283,457
1506652700291,464
1506652700299,462
1506652700303,467
1506652700312,471
1506652700320,470
1506652700328,478
1506652700335,477
1506652700344,479
1506652700352,483
1506652700360,481
1506652700369,488
1506652700377,485
1506652700385,488
1506652700393,490
1506652700402,488
1506652700410,494
1506652700418,490
1506652700426,492
1506652700434,493
1506652700442,489
1506652700451,493
1506652700459,490
1506652700463,491
1506652700471,493
1506652700479,493
1506652700488,504
1506652700496,511
1506652700504,527
1506652700512,549
1506652700521,569
1506652700529,601
1506652700537,627
1506652700545,654
1506652700553,682
1506652700561,699
1506652700569,720
1506652700578,725
1506652700586,726
1506652700594,723
1506652700602,707
1506652700611,696
1506652700618,671
1506652700623,647
1506652700631,623
1506652700639,591
1506652700648,568
1506652700655,539
1506652700664,516
1506652700672,498
1506652700680,476
1506652700688,466
1506652700697,451
1506652700705,445
1506652700713,443
1506652700721,436
1506652700729,441
1506652700737,440
1506652700745,444
1506652700754,453
1506652700762,456
1506652700770,471
1506652700778,476
1506652700783,486
1506652700791,498
1506652700799,504
1506652700807,518
1506652700815,522
1506652700823,528
1506652700831,537
1506652700839,535
1506652700848,540
1506652700856,538
1506652700865,535
1506652700873,535
1506652700881,525
1506652700889,524
1506652700897,513
1506652700906,505
1506652700914,500
1506652700921,487
1506652700929,484
1506652700937,474
1506652700942,468
1506652700950,465
1506652700958,456
1506652700966,457
1506652700975,452
1506652700983,451
1506652700991,454
1506652700999,449
1506652701008,454
1506652701016,452
1506652701024,454
1506652701033,458
1506652701040,457
1506652701049,464
1506652701057,463
1506652701065,466
1506652701073,472
1506652701081,470
1506652701089,476
1506652701097,476
1506652701102,478
1506652701110,483
1506652701119,480
1506652701126,486
1506652701134,484
1506652701142,485
1506652701150,489
1506652701159,484
1506652701167,490
1506652701175,487
1506652701185,486
1506652701193,489
1506652701202,484
1506652701209,488
1506652701217,484
1506652701225,483
1506652701233,485
1506652701242,479
1506652701249,484
1506652701257,481
1506652701262,479
1506652701270,482
1506652701278,476
1506652701286,480
1506652701294,477
1506652701303,478
1506652701311,485
1506652701319,489
1506652701327,506
1506652701335,520
1506652701343,543
1506652701351,573
1506652701359,598
1506652701367,632
1506652701376,659
1506652701384,684
1506652701393,708
1506652701400,719
1506652701409,731
1506652701417,731
1506652701421,724
1506652701430,714
1506652701438,691
1506652701446,673
1506652701454,644
1506652701463,615
1506652701471,590
1506652701479,558
1506652701487,535
1506652701495,509
1506652701504,486
1506652701511,472
1506652701520,453
1506652701527,446
1506652701535,436
1506652701545,432
1506652701553,434
1506652701560,431
1506652701569,439
1506652701577,441
1506652701581,447
1506652701590,460
1506652701598,464
1506652701606,479
1506652701614,488
1506652701622,497
1506652701630,510
1506652701639,514
1506652701647,525
1506652701655,530
1506652701663,533
1506652701671,540
1506652701679,535
1506652701687,539
1506652701696,534
1506652701704,529
1506652701712,527
1506652701721,516
1506652701728,513
1506652701736,504
1506652701740,495
1506652701748,491
1506652701757,478
1506652701766,475
1506652701774,467
1506652701782,459
1506652701790,459
1506652701798,451
1506652701807,452
1506652701815,448
1506652701822,446
1506652701830,450
1506652701839,445
1506652701847,451
1506652701855,451
1506652701863,451
1506652701871,458
1506652701880,456
1506652701888,463
1506652701896,466
1506652701900,467
1506652701909,474
1506652701917,473
1506652701925,480
1506652701933,481
1506652701941,482
1506652701950,488
1506652701958,484
1506652701966,488
1506652701974,488
1506652701982,486
1506652701990,490
1506652701999,486
1506652702008,488
1506652702016,486
1506652702023,483
1506652702031,487
1506652702040,481
1506652702048,484
1506652702056,482
1506652702060,478
1506652702068,482
1506652702076,476
1506652702085,479
1506652702093,478
1506652702101,474
1506652702110,478
1506652702118,473
1506652702126,475
1506652702133,474
1506652702142,471
1506652702150,476
1506652702158,472
1506652702166,480
1506652702175,486
1506652702183,495
1506652702191,516
1506652702199,532
1506652702208,559
1506652702216,586
1506652702223,614
1506652702227,648
1506652702236,670
1506652702244,696
1506652702252,713
1506652702260,720
1506652702268,729
1506652702276,721
1506652702285,713
1506652702293,697
1506652702301,674
1506652702310,654
1506652702318,623
1506652702327,598
1506652702335,569
1506652702343,540
1506652702351,520
1506652702359,493
1506652702367,475
1506652702375,459
1506652702383,445
1506652702388,440
1506652702396,430
1506652702404,431
1506652702413,430
1506652702421,429
1506652702429,439
1506652702437,441
1506652702445,453
1506652702453,463
1506652702461,471
1506652702470,487
1506652702478,494
1506652702486,508
1506652702494,518
1506652702502,524
1506652702511,537
1506652702519,538
1506652702527,545
1506652702535,547
1506652702543,544
1506652702547,547
1506652702555,539
1506652702564,536
1506652702572,529
1506652702580,519
1506652702588,515
1506652702597,503
1506652702605,497
1506652702613,488
1506652702621,477
1506652702629,474
1506652702637,462
1506652702646,459
1506652702654,455
1506652702662,449
1506652702670,452
1506652702678,446
1506652702687,448
1506652702695,449
1506652702703,447
1506652702707,452
1506652702716,450
1506652702724,453
1506652702732,455
1506652702740,455
1506652702748,462
1506652702756,461
1506652702764,465
1506652702773,469
1506652702781,468
1506652702789,475
1506652702797,473
1506652702805,478
1506652702814,480
1506652702822,478
1506652702830,486
1506652702838,481
1506652702846,485
1506652702855,487
1506652702863,484
1506652702866,490
1506652702876,486
1506652702884,487
1506652702892,487
1506652702900,483
1506652702908,487
1506652702916,481
1506652702924,482
1506652702932,482
1506652702941,478
1506652702949,482
1506652702958,476
1506652702966,477
1506652702974,478
1506652702982,473
1506652702990,477
1506652702998,472
1506652703007,474
1506652703015,477
1506652703023,480
1506652703026,494
1506652703035,502
1506652703043,523
1506652703051,547
1506652703059,569
1506652703067,602
1506652703075,626
1506652703084,654
1506652703092,677
1506652703100,692
1506652703109,708
1506652703117,709
1506652703125,709
1506652703133,701
1506652703142,682
1506652703150,666
1506652703158,638
1506652703166,613
1506652703174,587
1506652703182,555
1506652703186,532
1506652703195,502
1506652703203,481
1506652703212,462
1506652703220,442
1506652703228,435
1506652703236,421
1506652703244,417
1506652703252,415
1506652703261,411
1506652703269,419
1506652703277,420
1506652703285,429
1506652703293,439
1506652703301,446
1506652703309,463
1506652703318,471
1506652703326,485
1506652703334,498
1506652703342,505
1506652703348,520
1506652703355,526
1506652703363,534
1506652703372,541
1506652703380,539
1506652703388,545
1506652703396,540
1506652703404,537
1506652703412,533
1506652703420,522
1506652703428,520
1506652703436,508
1506652703445,500
1506652703453,493
1506652703461,479
1506652703469,476
1506652703477,465
1506652703486,458
1506652703494,456
1506652703502,448
1506652703506,449
1506652703515,443
1506652703523,444
1506652703531,446
1506652703539,443
1506652703547,449
1506652703555,448
1506652703563,451
1506652703571,456
1506652703580,456
1506652703588,464
1506652703596,464
1506652703604,468
1506652703612,473
1506652703621,472
1506652703629,481
1506652703637,479
1506652703645,483
1506652703653,487
1506652703661,484
1506652703665,491
1506652703673,488
1506652703681,489
1506652703690,492
1506652703699,488
1506652703707,493
1506652703715,490
1506652703723,490
1506652703731,492
1506652703739,486
1506652703748,490
1506652703756,485
1506652703764,485
1506652703772,486
1506652703780,480
1506652703788,483
1506652703796,479
1506652703805,478
1506652703813,479
1506652703821,475
1506652703825,478
1506652703833,474
1506652703842,474
1506652703850,479
1506652703858,480
1506652703867,495
1506652703875,506
1506652703883,524
1506652703891,552
1506652703899,574
1506652703907,606
1506652703917,632
1506652703924,660
1506652703932,685
1506652703940,699
1506652703948,715
1506652703957,717
1506652703965,714
1506652703973,708
1506652703981,689
1506652703985,674
1506652703993,648
1506652704001,620
1506652704010,594
1506652704018,561
1506652704026,538
1506652704034,510
1506652704043,487
1506652704051,470
1506652704059,449
1506652704067,442
1506652704076,432
1506652704084,426
1506652704092,428
1506652704100,424
1506652704108,430
1506652704116,433
1506652704125,439
1506652704133,449
1506652704141,453
1506652704149,467
1506652704153,475
1506652704161,484
1506652704169,499
1506652704177,503
1506652704186,515
1506652704194,521
1506652704202,526
1506652704210,534
1506652704219,534
1506652704227,540
1506652704235,537
1506652704243,535
1506652704251,534
1506652704259,524
1506652704268,523
1506652704276,514
1506652704284,505
1506652704292,501
1506652704300,488
1506652704308,484
1506652704313,474
1506652704321,466
1506652704329,464
1506652704337,454
1506652704345,454
1506652704353,448
1506652704362,444
1506652704370,447
1506652704378,442
1506652704386,448
1506652704394,448
1506652704403,448
1506652704411,454
1506652704420,453
1506652704427,460
1506652704435,461
1506652704444,463
1506652704452,472
1506652704460,469
1506652704468,476
1506652704472,477
1506652704480,478
1506652704488,483
1506652704497,480
1506652704505,486
1506652704513,486
1506652704522,486
1506652704529,491
1506652704537,487
1506652704546,492
1506652704554,490
1506652704562,489
1506652704570,492
1506652704578,487
1506652704587,489
1506652704595,487
1506652704603,484
1506652704612,486
1506652704620,481
1506652704627,483
1506652704632,480
1506652704640,478
1506652704648,482
1506652704656,477
1506652704665,479
1506652704672,477
1506652704681,474
1506652704689,478
1506652704697,475
1506652704705,485
1506652704714,494
1506652704722,507
1506652704730,531
1506652704738,550
1506652704747,580
1506652704755,609
1506652704763,637
1506652704771,667
1506652704779,687
1506652704787,708
1506652704791,719
1506652704800,722
1506652704808,724
1506652704816,711
1506652704825,699
1506652704833,678
1506652704841,651
1506652704849,627
1506652704858,593
1506652704866,566
1506652704874,535
1506652704882,506
1506652704891,485
1506652704899,458
1506652704907,445
1506652704915,432
1506652704923,421
1506652704932,420
1506652704940,413
1506652704948,417
1506652704952,419
1506652704960,423
1506652704968,433
1506652704977,437
1506652704985,450
1506652704993,460
1506652705001,469
1506652705009,485
1506652705018,491
1506652705026,506
1506652705034,514
1506652705042,520
1506652705050,532
1506652705058,534
1506652705066,542
1506652705074,542
1506652705083,540
1506652705091,542
1506652705099,534
1506652705107,532
1506652705112,525
1506652705120,514
1506652705128,510
1506652705136,498
1506652705144,492
1506652705153,484
1506652705161,475
1506652705169,474
1506652705177,463
1506652705186,460
1506652705193,456
1506652705201,450
1506652705210,451
1506652705218,445
1506652705226,447
1506652705234,448
1506652705243,446
1506652705251,451
1506652705259,449
1506652705267,454
1506652705271,458
1506652705279,459
1506652705288,466
1506652705296,464
1506652705304,471
1506652705313,474
1506652705321,474
1506652705328,481
1506652705336,480
1506652705345,484
1506652705353,485
1506652705361,484
1506652705369,490
1506652705377,487
1506652705386,489
1506652705394,489
1506652705402,487
1506652705411,491
1506652705419,487
1506652705426,490
1506652705431,490
1506652705439,487
1506652705447,490
1506652705455,485
1506652705464,486
1506652705471,487
1506652705480,481
1506652705488,485
1506652705496,479
1506652705505,480
1506652705513,479
1506652705521,474
1506652705529,478
1506652705537,474
1506652705545,478
1506652705553,482
1506652705562,488
1506652705570,507
1506652705578,521
1506652705586,547
1506652705591,573
1506652705599,596
1506652705607,629
1506652705615,649
1506652705624,673
1506652705631,692
1506652705640,700
1506652705648,710
1506652705656,705
1506652705664,700
1506652705673,687
1506652705681,664
1506652705689,646
1506652705697,616
1506652705705,590
1506652705714,562
1506652705722,531
1506652705729,510
1506652705738,483
1506652705747,463
1506652705751,447
1506652705759,431
1506652705767,426
1506652705775,415
1506652705783,414
1506652705792,414
1506652705800,411
1506652705808,421
1506652705816,423
1506652705825,433
1506652705833,444
1506652705841,451
1506652705849,467
1506652705857,476
1506652705866,489
1506652705874,502
1506652705882,509
1506652705890,524
1506652705898,529
1506652705906,539
1506652705911,545
1506652705919,543
1506652705926,549
1506652705934,545
1506652705942,543
1506652705952,540
1506652705960,530
1506652705968,528
1506652705976,517
1506652705984,510
1506652705992,502
1506652706000,490
1506652706009,487
1506652706017,474
1506652706025,469
1506652706033,465
1506652706041,455
1506652706049,456
1506652706057,449
1506652706065,449
1506652706073,449
1506652706078,446
1506652706086,450
1506652706095,448
1506652706103,451
1506652706111,456
1506652706120,454
1506652706127,462
1506652706135,461
1506652706144,465
1506652706152,471
1506652706160,470
1506652706168,478
1506652706176,477
1506652706184,481
1506652706192,485
1506652706200,483
1506652706209,491
1506652706217,488
1506652706226,490
1506652706233,493
1506652706238,489
1506652706247,495
1506652706254,492
1506652706263,493
1506652706271,494
1506652706279,490
1506652706287,494
1506652706295,490
1506652706303,490
1506652706312,491
1506652706320,485
1506652706328,489
1506652706336,484
1506652706345,483
1506652706353,484
1506652706361,479
1506652706369,483
1506652706377,482
1506652706385,491
1506652706393,503
1506652706398,514
1506652706407,539
1506652706414,559
1506652706422,586
1506652706430,615
1506652706439,635
1506652706447,663
1506652706455,679
1506652706463,693
1506652706471,703
1506652706480,700
1506652706488,699
1506652706496,684
1506652706504,668
1506652706513,650
1506652706521,620
1506652706528,599
1506652706536,568
1506652706545,539
1506652706553,514
1506652706557,483
1506652706565,467
1506652706573,445
1506652706581,430
1506652706590,422
1506652706598,409
1506652706607,410
1506652706616,405
1506652706625,405
1506652706631,412
1506652706639,414
1506652706648,426
1506652706655,433
1506652706664,444
1506652706672,458
1506652706680,468
1506652706688,486
1506652706696,497
1506652706704,509
1506652706713,524
1506652706717,531
1506652706726,545
1506652706734,550
1506652706742,554
1506652706750,560
1506652706758,556
1506652706767,558
1506652706775,552
1506652706784,545
1506652706791,541
1506652706799,528
1506652706807,524
1506652706816,511
1506652706824,501
1506652706832,496
1506652706840,482
1506652706848,478
1506652706857,468
1506652706864,462
1506652706872,460
1506652706877,452
1506652706885,453
1506652706893,448
1506652706901,447
1506652706910,451
1506652706918,446
1506652706926,452
1506652706934,452
1506652706942,454
1506652706951,460
1506652706959,459
1506652706968,465
1506652706976,467
1506652706984,469
1506652706992,475
1506652707000,474
1506652707008,481
1506652707016,481
1506652707024,482
1506652707032,489
1506652707036,486
1506652707045,491
1506652707053,491
1506652707061,492
1506652707069,496
1506652707077,493
1506652707086,497
1506652707094,495
1506652707102,493
1506652707110,496
1506652707119,490
1506652707128,493
1506652707135,492
1506652707143,493
1506652707151,502
1506652707159,507
1506652707168,525
1506652707176,542
1506652707184,563
1506652707192,590
1506652707196,609
1506652707205,638
1506652707213,657
1506652707221,672
1506652707229,688
1506652707237,689
1506652707245,693
1506652707253,686
1506652707262,671
1506652707270,658
1506652707278,632
1506652707286,612
1506652707294,584
1506652707302,555
1506652707311,532
1506652707319,501
1506652707327,482
1506652707336,458
1506652707344,439
1506652707352,429
1506652707356,413
1506652707364,409
1506652707372,403
1506652707380,400
1506652707389,405
1506652707397,404
1506652707405,414
1506652707413,420
1506652707422,428
1506652707429,445
1506652707438,453
1506652707446,469
1506652707454,483
1506652707462,493
1506652707470,510
1506652707478,518
1506652707487,532
1506652707496,540
1506652707505,545
1506652707512,554
1506652707516,550
1506652707524,553
1506652707532,550
1506652707540,543
1506652707548,541
1506652707556,530
1506652707565,524
1506652707573,514
1506652707581,503
1506652707589,498
1506652707597,485
1506652707606,480
1506652707614,473
1506652707623,464
1506652707630,463
1506652707638,454
1506652707647,454
1506652707655,452
1506652707663,448
1506652707671,452
1506652707679,448
1506652707683,453
1506652707691,455
1506652707700,455
1506652707708,461
1506652707716,459
1506652707725,466
1506652707733,469
1506652707741,469
1506652707749,477
1506652707757,474
1506652707765,479
1506652707774,479
1506652707782,478
1506652707790,483
1506652707798,480
1506652707806,483
1506652707815,484
1506652707823,481
1506652707831,487
1506652707839,482
1506652707843,485
1506652707851,485
1506652707859,481
1506652707867,485
1506652707876,483
1506652707885,488
1506652707893,494
1506652707901,500
1506652707909,521
1506652707917,535
1506652707925,561
1506652707933,586
1506652707941,608
1506652707949,638
1506652707958,657
1506652707967,678
1506652707975,692
1506652707983,697
1506652707991,702
1506652707999,693
1506652708003,683
1506652708011,667
1506652708020,642
1506652708028,623
1506652708035,592
1506652708045,566
1506652708053,538
1506652708061,508
1506652708069,486
1506652708077,460
1506652708086,444
1506652708094,428
1506652708102,414
1506652708110,411
1506652708118,401
1506652708126,403
1506652708134,405
1506652708142,405
1506652708150,415
1506652708159,419
1506652708163,430
1506652708171,442
1506652708180,451
1506652708188,468
1506652708196,476
1506652708205,492
1506652708212,504
1506652708220,511
1506652708228,527
1506652708236,531
1506652708244,539
1506652708253,545
1506652708261,544
1506652708269,549
1506652708277,544
1506652708286,543
1506652708294,538
1506652708302,528
1506652708310,525
1506652708319,512
1506652708323,506
1506652708330,497
1506652708338,485
1506652708347,480
1506652708355,468
1506652708364,462
1506652708372,458
1506652708380,450
1506652708388,452
1506652708397,446
1506652708405,447
1506652708413,447
1506652708421,444
1506652708429,451
1506652708437,449
1506652708446,453
1506652708454,457
1506652708462,456
1506652708470,465
1506652708478,464
1506652708482,469
1506652708490,473
1506652708499,471
1506652708507,479
1506652708515,477
1506652708523,481
1506652708531,484
1506652708539,483
1506652708548,490
1506652708556,488
1506652708564,490
1506652708572,493
1506652708580,490
1506652708589,496
1506652708597,495
1506652708605,499
1506652708614,509
1506652708622,516
1506652708629,537
1506652708637,554
1506652708642,579
1506652708650,605
1506652708658,626
1506652708666,655
1506652708674,672
1506652708682,687
1506652708691,699
1506652708699,699
1506652708707,702
1506652708716,689
1506652708724,674
1506652708732,656
1506652708741,628
1506652708749,606
1506652708757,574
1506652708765,545
1506652708774,520
1506652708782,488
1506652708790,470
1506652708798,445
1506652708802,428
1506652708810,419
1506652708819,404
1506652708827,404
1506652708835,399
1506652708843,399
1506652708851,404
1506652708859,405
1506652708868,417
1506652708876,423
1506652708884,434
1506652708892,449
1506652708900,457
1506652708909,475
1506652708917,484
1506652708925,497
1506652708933,511
1506652708941,517
1506652708949,531
1506652708957,536
1506652708962,541
1506652708970,547
1506652708978,543
1506652708987,546
1506652708995,539
1506652709003,535
1506652709011,531
1506652709019,519
1506652709027,515
1506652709035,503
1506652709044,495
1506652709052,488
1506652709060,476
1506652709068,472
1506652709076,462
1506652709085,457
1506652709093,455
1506652709101,447
1506652709109,448
1506652709117,444
1506652709123,441
1506652709131,444
1506652709138,441
1506652709146,447
1506652709155,448
1506652709162,451
1506652709171,457
1506652709179,457
1506652709187,465
1506652709195,467
1506652709203,470
1506652709211,477
1506652709220,478
1506652709228,485
1506652709236,485
1506652709244,487
1506652709252,492
1506652709260,490
1506652709268,496
1506652709277,493
1506652709284,493
1506652709289,498
1506652709297,495
1506652709306,504
1506652709315,513
1506652709322,526
1506652709330,547
1506652709338,566
1506652709346,594
1506652709355,618
1506652709363,643
1506652709371,668
1506652709379,682
1506652709387,698
1506652709395,703
1506652709404,701
1506652709412,698
1506652709420,680
1506652709429,665
1506652709436,640
1506652709444,612
1506652709448,587
1506652709457,553
1506652709465,529
1506652709473,498
1506652709481,472
1506652709490,453
1506652709497,430
1506652709506,419
1506652709514,407
1506652709522,399
1506652709530,398
1506652709538,393
1506652709547,400
1506652709555,401
1506652709563,408
1506652709571,422
1506652709579,428
1506652709587,445
1506652709596,458
1506652709604,470
1506652709608,488
1506652709617,498
1506652709625,514
1506652709632,523
1506652709641,532
1506652709649,545
1506652709657,546
1506652709666,553
1506652709673,552
1506652709682,547
1506652709690,548
1506652709698,536
1506652709706,533
1506652709715,523
1506652709724,513
1506652709731,507
1506652709739,493
1506652709748,487
1506652709756,477
1506652709764,468
1506652709768,465
1506652709776,454
1506652709784,453
1506652709793,449
1506652709801,445
1506652709809,448
1506652709818,443
1506652709826,447
1506652709834,447
1506652709843,448
1506652709850,455
1506652709858,453
1506652709867,461
1506652709875,464
1506652709882,465
1506652709891,474
1506652709899,471
1506652709908,478
1506652709916,480
1506652709924,480
1506652709928,487
1506652709936,484
1506652709944,489
1506652709952,488
1506652709960,487
1506652709969,494
1506652709977,494
1506652709985,504
1506652709993,515
1506652710002,529
1506652710010,555
1506652710019,574
1506652710027,603
1506652710035,628
1506652710043,650
1506652710051,673
1506652710059,684
1506652710068,696
1506652710076,698
1506652710084,691
1506652710088,685
1506652710096,664
1506652710105,643
1506652710113,617
1506652710121,586
1506652710129,561
1506652710137,527
1506652710146,501
1506652710154,475
1506652710162,449
1506652710170,435
1506652710178,414
1506652710186,406
1506652710195,397
1506652710204,389
1506652710210,393
1506652710219,390
1506652710228,396
1506652710236,402
1506652710244,408
1506652710248,424
1506652710256,432
1506652710265,449
1506652710272,463
1506652710280,477
1506652710289,496
1506652710297,505
1506652710305,519
1506652710313,531
1506652710321,536
1506652710329,547
1506652710338,546
1506652710346,550
1506652710354,548
1506652710362,542
1506652710370,541
1506652710379,529
1506652710387,524
1506652710396,514
1506652710403,502
1506652710407,497
1506652710416,482
1506652710424,474
1506652710432,466
1506652710440,455
1506652710448,454
1506652710456,444
1506652710465,443
1506652710473,440
1506652710481,435
1506652710489,441
1506652710497,437
1506652710505,441
1506652710514,445
1506652710522,445
1506652710530,454
1506652710538,454
1506652710546,460
1506652710555,464
1506652710563,466
1506652710567,474
1506652710575,473
1506652710584,480
1506652710591,485
1506652710600,483
1506652710608,490
1506652710616,488
1506652710625,491
1506652710633,493
1506652710641,490
1506652710649,497
1506652710657,499
1506652710665,510
1506652710673,525
1506652710682,540
1506652710690,570
1506652710698,592
1506652710706,621
1506652710715,649
1506652710722,669
1506652710727,693
1506652710735,703
1506652710743,713
1506652710751,713
1506652710759,703
1506652710768,695
1506652710776,672
1506652710784,650
1506652710792,626
1506652710801,593
1506652710809,569
1506652710817,535
1506652710825,508
1506652710833,483
1506652710841,456
1506652710849,443
1506652710857,425
1506652710866,415
1506652710874,410
1506652710882,402
1506652710886,407
1506652710894,405
1506652710903,410
1506652710912,419
1506652710920,423
1506652710928,437
1506652710936,445
1506652710944,458
1506652710952,473
1506652710960,482
1506652710968,498
1506652710977,506
1506652710985,518
1506652710993,529
1506652711001,533
1506652711009,542
1506652711018,540
1506652711026,541
1506652711034,542
1506652711042,534
1506652711047,534
1506652711055,524
1506652711063,518
1506652711071,511
1506652711079,499
1506652711087,496
1506652711095,484
1506652711104,477
1506652711112,472
1506652711120,462
1506652711128,461
1506652711137,454
1506652711145,452
1506652711153,453
1506652711161,447
1506652711169,451
1506652711177,448
1506652711186,450
1506652711194,454
1506652711202,452
1506652711210,460
1506652711214,459
1506652711222,464
1506652711231,470
1506652711239,468
1506652711247,476
1506652711255,476
1506652711263,481
1506652711272,485
1506652711280,483
1506652711288,490
1506652711296,488
1506652711304,489
1506652711312,493
1506652711321,488
1506652711329,494
1506652711337,494
1506652711345,500
1506652711353,513
1506652711361,524
1506652711369,550
1506652711374,571
1506652711382,598
1506652711390,629
1506652711398,651
1506652711407,679
1506652711415,695
1506652711423,707
1506652711431,716
1506652711439,709
1506652711448,706
1506652711455,689
1506652711464,668
1506652711472,646
1506652711480,615
1506652711488,590
1506652711497,558
1506652711505,528
1506652711514,506
1506652711522,477
1506652711529,460
1506652711533,441
1506652711542,429
1506652711550,424
1506652711558,415
1506652711566,417
1506652711574,414
1506652711582,417
1506652711591,426
1506652711600,428
1506652711608,440
1506652711616,448
1506652711625,457
1506652711632,471
1506652711640,478
1506652711649,494
1506652711656,502
1506652711664,511
1506652711673,522
1506652711681,524
1506652711689,534
1506652711694,535
1506652711702,535
1506652711710,538
1506652711718,531
1506652711726,531
1506652711735,524
1506652711743,516
1506652711751,512
1506652711759,500
1506652711767,496
1506652711776,486
1506652711784,478
1506652711792,474
1506652711800,463
1506652711808,462
1506652711817,457
1506652711825,453
1506652711833,454
1506652711841,448
1506652711848,452
1506652711853,450
1506652711861,450
1506652711869,455
1506652711878,452
1506652711886,459
1506652711894,461
1506652711902,463
1506652711910,470
1506652711919,469
1506652711927,475
1506652711935,477
1506652711943,478
1506652711951,483
1506652711960,481
1506652711968,488
1506652711976,487
1506652711984,487
1506652711992,492
1506652712000,487
1506652712009,491
1506652712013,489
1506652712022,488
1506652712030,491
1506652712039,485
1506652712046,490
1506652712054,490
1506652712063,494
1506652712071,507
1506652712079,516
1506652712087,540
1506652712095,561
1506652712103,586
1506652712111,618
1506652712120,641
1506652712128,669
1506652712136,688
1506652712144,699
1506652712153,710
1506652712160,705
1506652712169,702
1506652712173,686
1506652712181,665
1506652712190,646
1506652712199,614
1506652712207,589
1506652712214,559
1506652712223,530
1506652712231,508
1506652712238,479
1506652712247,462
1506652712255,445
1506652712263,431
1506652712271,427
1506652712279,418
1506652712288,418
1506652712296,417
1506652712304,418
1506652712312,426
1506652712320,428
1506652712328,439
1506652712333,448
1506652712340,456
1506652712348,473
1506652712358,479
1506652712366,493
1506652712373,504
1506652712382,511
1506652712391,525
1506652712398,528
1506652712407,537
1506652712414,539
1506652712423,538
1506652712431,543
1506652712439,536
1506652712447,534
1506652712455,528
1506652712464,519
1506652712472,516
1506652712480,503
1506652712488,497
1506652712492,489
1506652712500,479
1506652712508,476
1506652712516,464
1506652712527,462
1506652712533,457
1506652712541,452
1506652712549,454
1506652712557,448
1506652712565,450
1506652712574,451
1506652712582,449
1506652712591,456
1506652712599,453
1506652712607,459
1506652712615,461
1506652712623,462
1506652712632,469
1506652712640,468
1506652712648,475
1506652712652,478
1506652712660,476
1506652712668,484
1506652712677,482
1506652712684,487
1506652712693,489
1506652712701,488
1506652712709,493
1506652712718,489
1506652712726,492
1506652712734,492
1506652712742,489
1506652712751,494
1506652712758,488
1506652712767,490
1506652712775,489
1506652712783,484
1506652712791,488
1506652712799,483
1506652712807,484
1506652712812,483
1506652712820,479
1506652712828,483
1506652712836,477
1506652712845,479
1506652712852,480
1506652712861,480
1506652712869,493
1506652712877,502
1506652712885,524
1506652712893,548
1506652712901,573
1506652712909,608
1506652712918,634
1506652712926,663
1506652712935,687
1506652712943,702
1506652712951,718
1506652712959,717
1506652712967,715
1506652712971,706
1506652712979,685
1506652712987,668
1506652712995,639
1506652713004,612
1506652713012,585
1506652713021,551
1506652713029,528
1506652713037,497
1506652713045,476
1506652713053,457
1506652713061,438
1506652713069,431
1506652713078,419
1506652713086,415
1506652713094,415
1506652713102,413
1506652713110,421
1506652713119,424
1506652713127,433
1506652713135,444
1506652713140,451
1506652713148,469
1506652713156,477
1506652713165,492
1506652713172,505
1506652713180,512
1506652713188,528
1506652713196,534
1506652713205,542
1506652713213,547
1506652713222,545
1506652713230,551
1506652713237,545
1506652713246,543
1506652713255,539
1506652713263,527
1506652713271,525
1506652713278,512
1506652713287,503
1506652713294,497
1506652713299,485
1506652713307,482
1506652713315,471
1506652713324,466
1506652713332,462
1506652713340,453
1506652713348,456
1506652713356,451
1506652713364,450
1506652713372,452
1506652713380,449
1506652713388,456
1506652713397,455
1506652713405,459
1506652713413,464
1506652713422,464
1506652713430,473
1506652713438,472
1506652713448,476
1506652713455,482
1506652713459,480
1506652713467,487
1506652713476,486
1506652713484,489
1506652713492,493
1506652713500,490
1506652713508,497
1506652713516,495
1506652713525,495
1506652713532,498
1506652713541,493
1506652713549,498
1506652713557,495
1506652713565,495
1506652713573,496
1506652713581,491
1506652713589,493
1506652713598,490
1506652713606,488
1506652713614,489
1506652713619,484
1506652713627,488
1506652713635,483
1506652713643,481
1506652713651,482
1506652713659,477
1506652713667,481
1506652713675,479
1506652713684,483
1506652713692,493
1506652713700,504
1506652713709,527
1506652713717,549
1506652713726,578
1506652713733,611
1506652713741,636
1506652713750,667
1506652713758,687
1506652713766,704
1506652713774,716
1506652713778,715
1506652713786,713
1506652713795,699
1506652713803,680
1506652713811,659
1506652713819,627
1506652713827,602
1506652713835,568
1506652713844,537
1506652713852,511
1506652713860,480
1506652713868,461
1506652713876,439
1506652713885,423
1506652713892,414
1506652713901,403
1506652713909,402
1506652713917,399
1506652713926,401
1506652713934,409
1506652713938,413
1506652713946,427
1506652713954,436
1506652713962,449
1506652713970,467
1506652713979,476
1506652713987,495
1506652713995,507
1506652714003,517
1506652714011,531
1506652714020,536
1506652714028,547
1506652714036,548
1506652714044,550
1506652714052,554
1506652714061,546
1506652714069,547
1506652714077,539
1506652714085,530
1506652714093,525
1506652714097,512
1506652714106,506
1506652714114,495
1506652714122,485
1506652714131,480
1506652714138,468
1506652714146,466
1506652714155,458
1506652714163,453
1506652714171,454
1506652714179,447
1506652714187,449
1506652714195,447
1506652714204,446
1506652714212,450
1506652714221,448
1506652714229,456
1506652714237,456
1506652714245,459
1506652714253,466
1506652714257,466
1506652714265,473
1506652714273,477
1506652714281,479
1506652714289,486
1506652714297,485
1506652714306,491
1506652714314,492
1506652714323,493
1506652714331,498
1506652714338,495
1506652714347,500
1506652714355,499
1506652714363,497
1506652714371,501
1506652714379,497
1506652714388,499
1506652714396,496
1506652714405,493
1506652714413,494
1506652714417,488
1506652714425,489
1506652714434,487
1506652714442,484
1506652714450,489
1506652714458,490
1506652714466,503
1506652714474,518
1506652714483,539
1506652714491,568
1506652714499,590
1506652714507,622
1506652714515,651
1506652714524,671
1506652714532,693
1506652714540,700
1506652714548,709
1506652714556,708
1506652714565,698
1506652714573,687
1506652714577,663
1506652714585,642
1506652714593,614
1506652714601,582
1506652714609,556
1506652714618,522
1506652714626,498
1506652714634,472
1506652714642,450
1506652714650,438
1506652714658,420
1506652714667,414
1506652714675,408
1506652714683,403
1506652714691,409
1506652714699,407
1506652714708,415
1506652714716,421
1506652714724,428
1506652714732,442
1506652714736,448
1506652714745,464
1506652714753,476
1506652714761,485
1506652714769,502
1506652714777,507
1506652714786,521
1506652714794,529
1506652714802,533
1506652714810,542
1506652714818,540
1506652714827,542
1506652714835,540
1506652714843,534
1506652714852,533
1506652714860,522
1506652714868,516
1506652714876,508
1506652714884,497
1506652714892,493
1506652714900,480
1506652714904,473
1506652714913,465
1506652714921,455
1506652714929,455
1506652714937,446
1506652714946,446
1506652714954,444
1506652714962,440
1506652714970,445
1506652714978,442
1506652714987,448
1506652714995,450
1506652715003,451
1506652715011,458
1506652715019,458
1506652715027,465
1506652715036,468
1506652715044,469
1506652715051,477
1506652715059,476
1506652715065,481
1506652715072,485
1506652715080,484
1506652715089,491
1506652715097,490
1506652715106,494
1506652715113,495
1506652715122,492
1506652715130,497
1506652715138,493
1506652715146,495
1506652715154,496
1506652715162,492
1506652715170,497
1506652715178,492
1506652715187,492
1506652715196,493
1506652715204,488
1506652715212,490
1506652715220,485
1506652715224,487
1506652715232,491
1506652715241,495
1506652715250,512
1506652715257,524
1506652715266,550
1506652715274,578
1506652715281,604
1506652715290,639
1506652715298,663
1506652715306,688
1506652715314,708
1506652715322,715
1506652715330,724
1506652715338,717
1506652715346,710
1506652715355,695
1506652715363,670
1506652715371,650
1506652715379,617
1506652715383,588
1506652715392,560
1506652715400,528
1506652715408,504
1506652715416,475
1506652715426,455
1506652715433,440
1506652715442,424
1506652715450,420
1506652715458,411
1506652715466,411
1506652715474,414
1506652715482,413
1506652715490,423
1506652715498,427
1506652715507,437
1506652715514,448
1506652715523,454
1506652715531,470
1506652715539,477
1506652715543,490
1506652715552,502
1506652715560,506
1506652715568,520
1506652715576,523
1506652715585,530
1506652715593,536
1506652715601,534
1506652715610,539
1506652715618,534
1506652715626,530
1506652715634,528
1506652715642,519
1506652715650,517
1506652715658,506
1506652715667,499
1506652715674,494
1506652715683,481
1506652715691,479
1506652715698,470
1506652715703,466
1506652715711,464
1506652715719,455
1506652715728,456
1506652715736,451
1506652715745,451
1506652715753,452
1506652715761,448
1506652715769,455
1506652715777,452
1506652715786,455
1506652715793,460
1506652715802,459
1506652715810,468
1506652715818,467
1506652715826,471
1506652715835,477
1506652715842,475
1506652715851,483
1506652715858,481
1506652715863,485
1506652715871,488
1506652715879,486
1506652715887,492
1506652715895,491
1506652715904,491
1506652715912,495
1506652715920,492
1506652715928,497
1506652715936,494
1506652715945,493
1506652715953,496
1506652715962,491
1506652715970,493
1506652715978,489
1506652715987,489
1506652715995,491
1506652716003,485
1506652716011,489
1506652716019,485
1506652716023,484
1506652716031,488
1506652716039,488
1506652716047,501
1506652716055,514
1506652716063,533
1506652716072,561
1506652716080,585
1506652716089,620
1506652716097,646
1506652716105,672
1506652716113,697
1506652716121,708
1506652716130,721
1506652716137,720
1506652716146,714
1506652716153,706
1506652716161,682
1506652716170,662
1506652716178,633
1506652716182,603
1506652716190,575
1506652716198,540
1506652716207,516
1506652716215,486
1506652716223,462
1506652716232,446
1506652716239,426
1506652716248,419
1506652716256,410
1506652716264,406
1506652716272,408
1506652716280,405
1506652716289,414
1506652716297,417
1506652716305,424
1506652716313,438
1506652716322,444
1506652716331,459
1506652716338,470
1506652716342,480
1506652716350,496
1506652716359,503
1506652716367,517
1506652716375,524
1506652716383,531
1506652716391,541
1506652716399,540
1506652716408,546
1506652716416,544
1506652716424,540
1506652716432,541
1506652716441,530
1506652716449,527
1506652716457,519
1506652716465,508
1506652716473,504
1506652716481,492
1506652716490,487
1506652716498,478
1506652716506,470
1506652716510,468
1506652716518,457
1506652716527,458
1506652716535,453
1506652716543,448
1506652716551,451
1506652716559,447
1506652716567,450
1506652716576,449
1506652716584,450
1506652716593,456
1506652716600,453
1506652716608,461
1506652716617,462
1506652716625,463
1506652716633,472
1506652716641,472
1506652716649,479
1506652716657,481
1506652716665,481
1506652716669,488
1506652716678,486
1506652716686,491
1506652716694,492
1506652716702,492
1506652716711,497
1506652716719,494
1506652716727,497
1506652716736,497
1506652716743,494
1506652716752,499
1506652716760,494
1506652716768,495
1506652716776,493
1506652716784,490
1506652716792,493
1506652716801,486
1506652716809,489
1506652716817,487
1506652716825,483
1506652716830,487
1506652716838,482
1506652716846,489
1506652716854,496
1506652716862,507
1506652716870,529
1506652716878,549
1506652716887,579
1506652716895,607
1506652716903,634
1506652716911,666
1506652716920,684
1506652716928,704
1506652716936,716
1506652716944,717
1506652716952,719
1506652716961,705
1506652716969,692
1506652716977,671
1506652716985,643
1506652716989,620
1506652716997,586
1506652717005,558
1506652717014,530
1506652717022,498
1506652717031,477
1506652717038,451
1506652717046,436
1506652717055,421
1506652717063,408
1506652717071,405
1506652717079,398
1506652717087,400
1506652717096,403
1506652717104,405
1506652717112,416
1506652717120,421
1506652717129,436
1506652717137,448
1506652717144,459
1506652717149,477
1506652717157,486
1506652717165,503
1506652717173,515
1506652717181,523
1506652717190,537
1506652717198,541
1506652717206,549
1506652717214,555
1506652717223,551
1506652717231,554
1506652717239,547
1506652717247,543
1506652717255,538
1506652717264,527
1506652717271,523
1506652717280,509
1506652717288,502
1506652717296,494
1506652717304,482
1506652717308,480
1506652717316,468
1506652717325,464
1506652717333,461
1506652717341,453
1506652717349,455
1506652717358,450
1506652717366,451
1506652717374,452
1506652717382,450
1506652717390,456
1506652717398,455
1506652717407,459
1506652717415,463
1506652717423,462
1506652717432,470
1506652717439,470
1506652717447,474
1506652717455,479
1506652717464,479
1506652717468,486
1506652717477,485
1506652717484,489
1506652717493,493
1506652717501,491
1506652717510,497
1506652717518,494
1506652717526,496
1506652717534,499
1506652717542,496
1506652717550,500
1506652717558,496
1506652717567,498
1506652717575,499
1506652717583,495
1506652717592,499
1506652717600,493
1506652717608,494
1506652717616,495
1506652717624,490
1506652717629,498
1506652717637,502
1506652717645,515
1506652717652,536
1506652717661,554
1506652717670,584
1506652717678,609
1506652717686,637
1506652717694,664
1506652717702,682
1506652717710,703
1506652717718,711
1506652717727,714
1506652717735,713
1506652717743,698
1506652717751,686
1506652717759,661
1506652717768,636
1506652717776,608
1506652717784,574
1506652717788,548
1506652717796,514
1506652717804,487
1506652717813,464
1506652717821,438
1506652717829,425
1506652717837,408
1506652717846,398
1506652717854,393
1506652717861,385
1506652717870,390
1506652717878,389
1506652717886,395
1506652717894,406
1506652717902,411
1506652717911,429
1506652717919,440
1506652717927,455
1506652717936,473
1506652717943,484
1506652717947,503
1506652717955,515
1506652717964,527
1506652717973,541
1506652717981,546
1506652717989,556
1506652717997,557
1506652718006,559
1506652718014,560
1506652718022,552
1506652718030,551
1506652718038,542
1506652718046,532
1506652718054,525
1506652718062,511
1506652718071,505
1506652718079,492
1506652718087,483
1506652718096,477
1506652718104,464
1506652718108,462
1506652718116,453
1506652718125,449
1506652718133,449
1506652718140,443
1506652718148,447
1506652718157,445
1506652718165,445
1506652718173,449
1506652718182,448
1506652718190,455
1506652718198,455
1506652718206,458
1506652718214,465
1506652718222,464
1506652718231,472
1506652718238,474
1506652718246,476
1506652718256,482
1506652718262,481
1506652718267,487
1506652718275,487
1506652718283,489
1506652718291,494
1506652718299,490
1506652718309,496
1506652718317,494
1506652718325,495
1506652718333,500
1506652718341,501
1506652718350,513
1506652718358,525
1506652718366,543
1506652718374,570
1506652718382,592
1506652718390,623
1506652718398,646
1506652718407,670
1506652718415,693
1506652718423,702
1506652718431,714
1506652718435,713
1506652718443,705
1506652718451,697
1506652718459,674
1506652718467,656
1506652718476,629
1506652718484,598
1506652718494,572
1506652718501,538
1506652718509,513
1506652718517,484
1506652718526,459
1506652718533,443
1506652718542,421
1506652718550,412
1506652718558,401
1506652718566,393
1506652718574,395
1506652718582,391
1506652718590,397
1506652718595,401
1506652718603,407
1506652718611,421
1506652718619,427
1506652718628,444
1506652718636,456
1506652718644,469
1506652718652,488
1506652718661,498
1506652718669,515
1506652718677,526
1506652718685,535
1506652718693,547
1506652718701,550
1506652718709,557
1506652718717,557
1506652718726,555
1506652718734,556
1506652718742,546
1506652718750,543
1506652718754,534
1506652718763,523
1506652718771,517
1506652718779,504
1506652718787,498
1506652718795,487
1506652718804,476
1506652718811,472
1506652718820,460
1506652718829,459
1506652718837,454
1506652718845,448
1506652718853,452
1506652718861,446
1506652718869,448
1506652718877,449
1506652718885,448
1506652718893,454
1506652718901,452
1506652718909,458
1506652718914,461
1506652718922,462
1506652718930,471
1506652718939,470
1506652718947,476
1506652718955,480
1506652718963,481
1506652718971,488
1506652718979,486
1506652718988,491
1506652718996,493
1506652719004,492
1506652719012,498
1506652719020,493
1506652719029,497
1506652719038,499
1506652719045,498
1506652719054,509
1506652719062,515
1506652719070,533
1506652719074,555
1506652719082,577
1506652719091,609
1506652719099,633
1506652719107,663
1506652719115,687
1506652719123,703
1506652719132,721
1506652719140,724
1506652719148,725
1506652719156,718
1506652719164,700
1506652719173,685
1506652719181,656
1506652719189,631
1506652719197,600
1506652719207,566
1506652719214,540
1506652719222,505
1506652719229,482
1506652719234,457
1506652719242,433
1506652719250,421
1506652719258,405
1506652719266,397
1506652719274,392
1506652719283,387
1506652719291,394
1506652719299,395
1506652719307,404
1506652719315,414
1506652719324,422
1506652719332,440
1506652719340,450
1506652719348,466
1506652719356,482
1506652719364,494
1506652719373,513
1506652719381,522
1506652719389,535
1506652719393,545
1506652719401,548
1506652719409,558
1506652719418,556
1506652719426,558
1506652719434,557
1506652719442,547
1506652719450,547
1506652719458,535
1506652719467,528
1506652719475,520
1506652719483,507
1506652719491,503
1506652719499,490
1506652719508,482
1506652719516,476
1506652719525,464
1506652719533,463
1506652719540,453
1506652719548,451
1506652719553,450
1506652719561,444
1506652719569,449
1506652719577,447
1506652719586,450
1506652719594,454
1506652719602,452
1506652719610,460
1506652719618,460
1506652719627,465
1506652719635,470
1506652719644,470
1506652719652,479
1506652719660,478
1506652719668,483
1506652719676,487
1506652719685,485
1506652719693,493
1506652719701,491
1506652719709,494
1506652719713,497
1506652719721,494
1506652719729,500
1506652719738,498
1506652719745,504
1506652719754,515
1506652719762,524
1506652719770,548
1506652719779,568
1506652719787,595
1506652719795,625
1506652719803,648
1506652719811,677
1506652719819,695
1506652719828,710
1506652719836,721
1506652719845,718
1506652719852,718
1506652719861,703
1506652719869,686
1506652719873,665
1506652719881,634
1506652719889,609
1506652719898,576
1506652719905,545
1506652719913,519
1506652719922,485
1506652719930,464
1506652719938,440
1506652719946,423
1506652719955,411
1506652719963,397
1506652719971,395
1506652719979,388
1506652719987,388
1506652719996,394
1506652720004,396
1506652720012,409
1506652720020,418
1506652720028,431
1506652720036,448
1506652720040,460
1506652720049,480
1506652720057,493
1506652720065,509
1506652720073,526
1506652720082,534
1506652720090,550
1506652720098,555
1506652720106,560
1506652720115,566
1506652720123,562
1506652720131,564
1506652720139,557
1506652720147,550
1506652720155,545
1506652720163,531
1506652720171,526
1506652720180,512
1506652720188,501
1506652720196,494
1506652720200,479
1506652720208,474
1506652720217,464
1506652720225,457
1506652720234,456
1506652720241,447
1506652720249,450
1506652720257,446
1506652720266,446
1506652720274,450
1506652720282,447
1506652720290,453
1506652720298,454
1506652720306,458
1506652720315,465
1506652720323,463
1506652720331,471
1506652720340,472
1506652720348,476
1506652720356,482
1506652720360,480
1506652720368,488
1506652720376,489
1506652720385,489
1506652720393,495
1506652720401,492
1506652720409,497
1506652720417,498
1506652720426,500
1506652720434,510
1506652720442,517
1506652720450,538
1506652720458,558
1506652720466,584
1506652720474,616
1506652720482,640
1506652720490,671
1506652720499,692
1506652720507,708
1506652720515,723
1506652720520,724
1506652720528,724
1506652720537,712
1506652720545,695
1506652720553,676
1506652720561,645
1506652720569,618
1506652720577,586
1506652720585,551
1506652720593,523
1506652720601,488
1506652720610,465
1506652720618,440
1506652720626,419
1506652720635,406
1506652720642,390
1506652720651,386
1506652720659,380
1506652720667,377
1506652720675,384
1506652720680,384
1506652720688,397
1506652720696,408
1506652720705,421
1506652720713,442
1506652720721,455
1506652720729,476
1506652720737,493
1506652720745,509
1506652720753,527
1506652720761,536
1506652720769,552
1506652720778,561
1506652720785,564
1506652720794,571
1506652720802,567
1506652720810,567
1506652720819,563
1506652720827,553
1506652720835,547
1506652720840,533
1506652720848,526
1506652720856,513
1506652720865,499
1506652720872,493
1506652720881,478
1506652720889,472
1506652720897,463
1506652720906,453
1506652720913,454
1506652720921,445
1506652720929,445
1506652720938,443
1506652720946,441
1506652720954,447
1506652720962,444
1506652720970,449
1506652720978,452
1506652720986,453
1506652720995,462
1506652720999,461
1506652721007,468
1506652721016,472
1506652721023,473
1506652721032,480
1506652721040,480
1506652721048,485
1506652721056,489
1506652721066,489
1506652721073,500
1506652721081,506
1506652721089,523
1506652721097,544
1506652721106,566
1506652721114,600
1506652721122,625
1506652721130,657
1506652721138,683
1506652721146,701
1506652721155,721
1506652721158,726
1506652721167,730
1506652721176,724
1506652721184,708
1506652721192,694
1506652721200,665
1506652721209,639
1506652721216,609
1506652721225,574
1506652721233,546
1506652721241,510
1506652721249,484
1506652721257,458
1506652721265,433
1506652721273,420
1506652721281,401
1506652721289,394
1506652721298,389
1506652721306,383
1506652721314,388
1506652721318,387
1506652721327,396
1506652721335,406
1506652721343,414
1506652721351,432
1506652721359,443
1506652721367,461
1506652721376,479
1506652721384,490
1506652721393,511
1506652721400,520
1506652721408,534
1506652721417,545
1506652721425,548
1506652721434,558
1506652721442,556
1506652721449,557
1506652721457,556
1506652721466,546
1506652721474,544
1506652721478,531
1506652721486,523
1506652721494,515
1506652721502,500
1506652721510,496
1506652721519,482
1506652721527,474
1506652721536,468
1506652721544,457
1506652721552,457
1506652721560,449
1506652721569,448
1506652721576,448
1506652721585,444
1506652721592,450
1506652721601,448
1506652721609,451
1506652721617,456
1506652721625,454
1506652721634,462
1506652721638,463
1506652721646,467
1506652721654,473
1506652721662,472
1506652721670,481
1506652721678,481
1506652721687,485
1506652721695,489
1506652721703,487
1506652721711,494
1506652721719,494
1506652721730,500
1506652721736,512
1506652721744,524
1506652721752,549
1506652721761,572
1506652721769,603
1506652721777,637
1506652721786,664
1506652721794,698
1506652721802,717
1506652721806,735
1506652721815,748
1506652721823,746
1506652721831,744
1506652721839,729
1506652721847,710
1506652721855,687
1506652721864,653
1506652721872,626
1506652721880,589
1506652721888,556
1506652721896,527
1506652721906,492
1506652721912,470
1506652721921,445
1506652721930,427
1506652721937,417
1506652721945,403
1506652721953,402
1506652721961,398
1506652721966,400
1506652721974,406
1506652721982,408
1506652721990,422
1506652721999,430
1506652722007,442
1506652722015,459
1506652722023,469
1506652722031,488
1506652722040,499
1506652722047,512
1506652722055,526
1506652722064,531
1506652722072,543
1506652722080,546
1506652722088,549
1506652722096,552
1506652722105,546
1506652722113,546
1506652722121,539
1506652722125,533
1506652722134,527
1506652722142,513
1506652722150,508
1506652722158,496
1506652722166,486
1506652722174,481
1506652722182,468
1506652722191,466
1506652722199,457
1506652722207,451
1506652722215,452
1506652722224,445
1506652722232,447
1506652722240,445
1506652722248,445
1506652722256,450
1506652722264,447
1506652722272,454
1506652722280,455
1506652722285,459
1506652722293,465
1506652722301,465
1506652722309,472
1506652722317,474
1506652722326,475
1506652722334,483
1506652722342,480
1506652722351,486
1506652722359,487
1506652722367,488
1506652722375,493
1506652722384,491
1506652722392,500
1506652722400,507
1506652722408,518
1506652722416,541
1506652722425,559
1506652722433,591
1506652722441,620
1506652722445,650
1506652722453,681
1506652722461,701
1506652722470,723
1506652722478,733
1506652722486,735
1506652722494,736
1506652722502,719
1506652722511,705
1506652722519,681
1506652722527,651
1506652722535,624
1506652722543,587
1506652722552,559
1506652722560,526
1506652722568,495
1506652722576,473
1506652722585,447
1506652722592,434
1506652722601,420
1506652722605,409
1506652722613,408
1506652722621,402
1506652722629,405
1506652722637,408
1506652722646,412
1506652722653,423
1506652722662,428
1506652722670,442
1506652722678,453
1506652722686,464
1506652722694,481
1506652722703,488
1506652722711,503
1506652722719,513
1506652722727,519
1506652722736,531
1506652722744,533
1506652722751,538
1506652722760,539
1506652722764,536
1506652722772,537
1506652722780,528
1506652722788,525
1506652722797,516
1506652722805,505
1506652722813,502
1506652722821,489
1506652722830,482
1506652722838,476
1506652722847,466
1506652722855,464
1506652722863,455
1506652722871,454
1506652722879,450
1506652722887,446
1506652722896,449
1506652722904,443
1506652722912,447
1506652722920,448
1506652722924,447
1506652722932,454
1506652722941,453
1506652722948,460
1506652722956,463
1506652722965,465
1506652722973,473
1506652722982,472
1506652722990,478
1506652722998,481
1506652723006,481
1506652723014,488
1506652723022,486
1506652723030,491
1506652723039,493
1506652723046,492
1506652723054,496
1506652723063,492
1506652723071,495
1506652723079,496
1506652723083,496
1506652723091,507
1506652723100,514
1506652723109,535
1506652723117,558
1506652723125,582
1506652723133,618
1506652723141,643
1506652723150,674
1506652723157,700
1506652723166,716
1506652723174,733
1506652723182,732
1506652723191,731
1506652723199,722
1506652723207,701
1506652723215,683
1506652723223,651
1506652723231,622
1506652723239,591
1506652723244,555
1506652723252,527
1506652723260,494
1506652723268,469
1506652723276,448
1506652723285,428
1506652723293,419
1506652723301,406
1506652723309,402
1506652723317,400
1506652723326,398
1506652723334,406
1506652723342,408
1506652723350,418
1506652723358,430
1506652723366,439
1506652723375,456
1506652723383,467
1506652723391,483
1506652723399,499
1506652723403,508
1506652723412,523
1506652723420,530
1506652723428,539
1506652723436,546
1506652723444,544
1506652723452,549
1506652723460,544
1506652723469,540
1506652723477,537
1506652723485,525
1506652723493,521
1506652723501,508
1506652723510,500
1506652723518,493
1506652723526,479
1506652723534,476
1506652723543,464
1506652723550,459
1506652723559,456
1506652723567,448
1506652723571,450
1506652723579,445
1506652723587,445
1506652723595,447
1506652723605,445
1506652723612,450
1506652723620,450
1506652723629,454
1506652723637,460
1506652723645,459
1506652723653,468
1506652723661,469
1506652723669,473
1506652723677,479
1506652723685,478
1506652723694,486
1506652723702,487
1506652723710,489
1506652723718,493
1506652723726,491
1506652723732,497
1506652723740,493
1506652723747,495
1506652723755,497
1506652723763,491
1506652723771,496
1506652723780,494
1506652723788,500
1506652723796,513
1506652723804,525
1506652723812,550
1506652723821,574
1506652723829,604
1506652723837,636
1506652723845,661
1506652723853,691
1506652723862,709
1506652723870,721
1506652723878,731
1506652723886,724
1506652723890,719
1506652723899,700
1506652723907,677
1506652723915,652
1506652723924,618
1506652723932,590
1506652723940,554
1506652723948,521
1506652723956,494
1506652723965,461
1506652723973,442
1506652723981,420
1506652723989,405
1506652723997,398
1506652724006,387
1506652724014,389
1506652724022,388
1506652724030,392
1506652724038,402
1506652724045,407
1506652724051,423
1506652724059,435
1506652724067,450
1506652724076,470
1506652724084,481
1506652724092,500
1506652724100,512
1506652724108,523
1506652724116,536
1506652724124,539
1506652724132,548
1506652724141,548
1506652724148,546
1506652724156,548
1506652724165,538
1506652724173,535
1506652724182,525
1506652724190,514
1506652724198,508
1506652724206,493
1506652724210,487
1506652724218,476
1506652724227,467
1506652724235,462
1506652724243,450
1506652724251,449
1506652724259,443
1506652724267,438
1506652724275,440
1506652724284,435
1506652724291,438
1506652724300,438
1506652724308,438
1506652724316,444
1506652724324,443
1506652724333,451
1506652724341,453
1506652724349,456
1506652724357,464
1506652724365,464
1506652724369,472
1506652724377,476
1506652724386,477
1506652724394,484
1506652724402,484
1506652724410,487
1506652724418,488
1506652724426,487
1506652724435,491
1506652724443,488
1506652724451,493
1506652724459,496
1506652724467,503
1506652724476,520
1506652724484,534
1506652724492,561
1506652724500,588
1506652724508,618
1506652724516,652
1506652724525,677
1506652724529,704
1506652724537,721
1506652724546,729
1506652724554,736
1506652724562,727
1506652724570,717
1506652724578,698
1506652724587,671
1506652724595,645
1506652724603,610
1506652724611,580
1506652724619,547
1506652724627,513
1506652724636,489
1506652724644,459
1506652724651,442
1506652724660,425
1506652724669,410
1506652724677,406
1506652724685,397
1506652724689,398
1506652724697,399
1506652724706,400
1506652724714,410
1506652724722,414
1506652724730,426
1506652724738,436
1506652724746,446
1506652724755,463
1506652724763,472
1506652724771,487
1506652724779,499
1506652724788,507
1506652724796,521
1506652724804,525
1506652724812,533
1506652724821,537
1506652724828,535
1506652724837,538
1506652724846,531
1506652724849,527
1506652724857,521
1506652724866,510
1506652724874,507
1506652724882,494
1506652724890,487
1506652724898,478
1506652724906,467
1506652724915,464
1506652724923,454
1506652724931,451
1506652724939,448
1506652724948,441
1506652724956,444
1506652724964,438
1506652724972,440
1506652724981,441
1506652724989,439
1506652724996,446
1506652725004,445
1506652725009,450
1506652725017,455
1506652725025,456
1506652725034,464
1506652725042,463
1506652725050,469
1506652725058,474
1506652725066,473
1506652725074,481
1506652725083,480
1506652725091,483
1506652725099,486
1506652725107,484
1506652725115,489
1506652725124,487
1506652725132,488
1506652725140,488
1506652725148,485
1506652725156,492
1506652725165,493
1506652725168,504
1506652725176,521
1506652725185,537
1506652725193,569
1506652725201,596
1506652725209,630
1506652725217,663
1506652725225,690
1506652725234,717
1506652725242,731
1506652725250,742
1506652725258,746
1506652725266,735
1506652725274,725
1506652725283,701
1506652725291,675
1506652725299,648
1506652725308,611
1506652725316,582
1506652725324,546
1506652725332,517
1506652725337,489
1506652725345,460
1506652725352,445
1506652725361,426
1506652725369,416
1506652725378,411
1506652725386,403
1506652725394,407
1506652725402,405
1506652725411,410
1506652725419,417
1506652725427,421
1506652725435,435
1506652725443,441
1506652725451,452
1506652725460,465
1506652725468,472
1506652725476,488
1506652725484,495
1506652725492,504
1506652725496,515
1506652725504,517
1506652725513,526
1506652725521,527
1506652725529,529
1506652725537,531
1506652725546,524
1506652725553,524
1506652725562,519
1506652725570,511
1506652725578,505
1506652725586,492
1506652725594,488
1506652725603,477
1506652725610,469
1506652725619,465
1506652725627,454
1506652725635,453
1506652725644,447
1506652725651,443
1506652725656,444
1506652725664,439
1506652725672,443
1506652725680,440
1506652725689,441
1506652725697,445
1506652725705,444
1506652725713,451
1506652725721,452
1506652725730,456
1506652725738,462
1506652725746,461
1506652725754,469
1506652725762,470
1506652725771,474
1506652725779,480
1506652725787,478
1506652725795,484
1506652725803,484
1506652725811,484
1506652725815,489
1506652725824,485
1506652725832,489
1506652725840,488
1506652725848,487
1506652725856,488
1506652725864,482
1506652725873,484
1506652725881,481
1506652725889,480
1506652725897,484
1506652725905,485
1506652725914,497
1506652725922,511
1506652725930,533
1506652725939,564
1506652725947,592
1506652725954,630
1506652725963,660
1506652725971,687
1506652725975,714
1506652725983,727
1506652725991,738
1506652725999,738
1506652726008,730
1506652726016,718
1506652726024,692
1506652726033,669
1506652726041,637
1506652726049,603
1506652726058,573
1506652726066,535
1506652726074,507
1506652726082,477
1506652726090,451
1506652726098,436
1506652726106,417
1506652726115,410
1506652726123,402
1506652726131,398
1506652726135,402
1506652726143,401
1506652726151,410
1506652726159,414
1506652726167,422
1506652726176,436
1506652726185,443
1506652726193,458
1506652726201,470
1506652726209,479
1506652726217,495
1506652726226,503
1506652726234,515
1506652726242,522
1506652726250,527
1506652726258,535
1506652726267,533
1506652726274,535
1506652726283,532
1506652726291,525
1506652726295,524
1506652726303,513
1506652726311,508
1506652726320,500
1506652726328,490
1506652726336,485
1506652726344,473
1506652726352,469
1506652726360,460
1506652726368,452
1506652726376,452
1506652726385,443
1506652726393,443
1506652726401,441
1506652726409,436
1506652726417,440
1506652726425,437
1506652726434,441
1506652726442,443
1506652726450,443
1506652726454,451
1506652726462,449
1506652726470,456
1506652726479,459
1506652726487,460
1506652726496,468
1506652726505,468
1506652726512,474
1506652726520,477
1506652726529,477
1506652726537,483
1506652726545,482
1506652726553,485
1506652726561,487
1506652726570,485
1506652726578,490
1506652726586,487
1506652726594,489
1506652726602,490
1506652726610,486
1506652726615,490
1506652726623,485
1506652726631,486
1506652726639,484
1506652726647,480
1506652726655,483
1506652726664,476
1506652726672,476
1506652726680,476
1506652726688,472
1506652726696,481
1506652726705,486
1506652726713,504
1506652726721,525
1506652726729,550
1506652726737,585
1506652726746,615
1506652726754,650
1506652726762,682
1506652726770,703
1506652726774,727
1506652726783,734
1506652726792,739
1506652726799,735
1506652726808,718
1506652726816,703
1506652726824,674
1506652726832,645
1506652726840,613
1506652726848,577
1506652726856,547
1506652726865,511
1506652726872,483
1506652726881,458
1506652726889,432
1506652726897,420
1506652726905,404
1506652726913,397
1506652726921,393
1506652726929,388
1506652726934,394
1506652726942,396
1506652726950,404
1506652726958,414
1506652726968,422
1506652726976,440
1506652726983,449
1506652726991,464
1506652726999,480
1506652727008,489
1506652727016,505
1506652727024,512
1506652727032,522
1506652727041,531
1506652727049,533
1506652727056,540
1506652727065,538
1506652727073,539
1506652727081,536
1506652727089,526
1506652727097,525
1506652727101,514
1506652727109,506
1506652727118,499
1506652727126,486
1506652727135,481
1506652727144,468
1506652727151,461
1506652727159,457
1506652727167,447
1506652727176,447
1506652727184,441
1506652727192,439
1506652727200,440
1506652727208,436
1506652727216,441
1506652727224,439
1506652727232,441
1506652727241,447
1506652727248,446
1506652727257,454
1506652727261,455
1506652727269,460
1506652727278,465
1506652727286,466
1506652727294,473
1506652727302,474
1506652727310,476
1506652727319,482
1506652727328,480
1506652727336,486
1506652727344,486
1506652727352,487
1506652727360,492
1506652727368,488
1506652727376,494
1506652727384,489
1506652727392,488
1506652727401,490
1506652727408,485
1506652727416,488
1506652727421,484
1506652727429,482
1506652727438,484
1506652727446,478
1506652727454,481
1506652727462,478
1506652727470,476
1506652727478,478
1506652727486,473
1506652727494,476
1506652727503,476
1506652727512,481
1506652727519,494
1506652727527,506
1506652727536,532
1506652727544,558
1506652727552,587
1506652727560,622
1506652727568,648
1506652727576,680
1506652727580,701
1506652727589,716
1506652727597,728
1506652727605,725
1506652727614,721
1506652727622,705
1506652727630,684
1506652727638,662
1506652727647,627
1506652727654,599
1506652727662,566
1506652727670,532
1506652727680,505
1506652727688,473
1506652727697,452
1506652727704,430
1506652727713,413
1506652727720,404
1506652727728,391
1506652727736,390
1506652727741,387
1506652727749,387
1506652727757,396
1506652727765,397
1506652727773,410
1506652727781,421
1506652727790,433
1506652727798,451
1506652727806,461
1506652727815,480
1506652727822,492
1506652727831,504
1506652727839,520
1506652727847,525
1506652727855,537
1506652727863,542
1506652727872,543
1506652727880,547
1506652727888,541
1506652727896,540
1506652727900,533
1506652727908,524
1506652727917,520
1506652727925,506
1506652727934,499
1506652727942,489
1506652727950,477
1506652727958,473
1506652727966,461
1506652727974,458
1506652727982,452
1506652727991,447
1506652727999,448
1506652728007,440
1506652728015,441
1506652728023,439
1506652728031,438
1506652728040,443
1506652728048,440
1506652728056,446
1506652728060,448
1506652728068,449
1506652728076,458
1506652728084,459
1506652728093,465
1506652728101,469
1506652728109,470
1506652728117,478
1506652728125,477
1506652728134,483
1506652728142,485
1506652728150,485
1506652728158,491
1506652728166,489
1506652728175,493
1506652728183,494
1506652728191,492
1506652728199,496
1506652728207,492
1506652728215,494
1506652728219,494
1506652728228,491
1506652728236,495
1506652728245,490
1506652728253,491
1506652728261,490
1506652728269,486
1506652728277,489
1506652728286,483
1506652728294,484
1506652728302,483
1506652728310,478
1506652728318,482
1506652728326,478
1506652728335,486
1506652728343,496
1506652728350,507
1506652728359,532
1506652728367,554
1506652728375,585
1506652728379,616
1506652728388,643
1506652728396,675
1506652728404,694
1506652728412,713
1506652728421,724
1506652728429,723
1506652728437,722
1506652728445,707
1506652728453,690
1506652728462,667
1506652728470,636
1506652728478,610
1506652728486,574
1506652728494,543
1506652728502,514
1506652728510,482
1506652728519,459
1506652728527,433
1506652728535,417
1506652728539,404
1506652728547,391
1506652728556,390
1506652728564,383
1506652728572,385
1506652728580,390
1506652728588,393
1506652728596,408
1506652728605,416
1506652728613,431
1506652728621,447
1506652728629,459
1506652728638,480
1506652728646,492
1506652728654,508
1506652728662,523
1506652728670,532
1506652728679,546
1506652728687,551
1506652728695,557
1506652728699,561
1506652728707,558
1506652728715,559
1506652728724,550
1506652728732,544
1506652728740,539
1506652728748,525
1506652728756,519
1506652728765,506
1506652728773,496
1506652728781,488
1506652728789,475
1506652728797,470
1506652728806,460
1506652728814,456
1506652728822,454
1506652728830,446
1506652728839,448
1506652728847,443
1506652728854,443
1506652728859,447
1506652728867,444
1506652728875,451
1506652728883,452
1506652728891,455
1506652728900,460
1506652728908,461
1506652728916,469
1506652728924,469
1506652728932,473
1506652728941,478
1506652728949,476
1506652728957,484
1506652728965,484
1506652728974,486
1506652728982,491
1506652728990,489
1506652728998,495
1506652729007,494
1506652729015,496
1506652729023,498
1506652729027,494
1506652729035,500
1506652729043,497
1506652729051,496
1506652729059,497
1506652729067,492
1506652729075,495
1506652729084,492
1506652729092,493
1506652729100,501
1506652729108,508
1506652729116,528
1506652729124,548
1506652729133,573
1506652729142,603
1506652729150,626
1506652729158,657
1506652729166,677
1506652729174,694
1506652729182,708
1506652729187,709
1506652729195,710
1506652729203,698
1506652729211,683
1506652729220,665
1506652729228,637
1506652729236,613
1506652729244,579
1506652729252,548
1506652729261,521
1506652729268,488
1506652729277,466
1506652729285,441
1506652729293,422
1506652729301,409
1506652729309,394
1506652729317,391
1506652729326,383
1506652729334,382
1506652729342,388
1506652729346,388
1506652729354,400
1506652729363,409
1506652729371,421
1506652729379,439
1506652729387,450
1506652729395,470
1506652729404,484
1506652729412,499
1506652729420,517
1506652729428,525
1506652729436,540
1506652729444,547
1506652729452,552
1506652729460,560
1506652729468,557
1506652729477,560
1506652729485,555
1506652729493,548
1506652729501,543
1506652729505,531
1506652729514,525
1506652729522,513
1506652729531,502
1506652729539,495
1506652729547,480
1506652729555,475
1506652729564,465
1506652729571,457
1506652729580,456
1506652729588,448
1506652729596,448
1506652729604,445
1506652729612,443
1506652729620,447
1506652729629,444
1506652729637,449
1506652729645,450
1506652729654,451
1506652729662,458
1506652729667,457
1506652729674,464
1506652729682,466
1506652729691,467
1506652729699,474
1506652729707,474
1506652729715,480
1506652729723,482
1506652729731,483
1506652729740,490
1506652729748,487
1506652729756,493
1506652729764,493
1506652729772,493
1506652729781,499
1506652729789,500
1506652729797,512
1506652729805,524
1506652729813,541
1506652729821,567
1506652729826,590
1506652729834,621
1506652729842,646
1506652729850,668
1506652729858,693
1506652729866,703
1506652729875,714
1506652729882,715
1506652729890,707
1506652729899,699
1506652729907,678
1506652729915,658
1506652729923,631
1506652729931,601
1506652729940,575
1506652729949,540
1506652729956,514
1506652729965,487
1506652729973,460
1506652729981,444
1506652729985,422
1506652729993,411
1506652730001,401
1506652730010,393
1506652730018,394
1506652730026,389
1506652730034,395
1506652730044,400
1506652730051,406
1506652730059,420
1506652730067,427
1506652730076,442
1506652730084,457
1506652730092,468
1506652730100,486
1506652730108,496
1506652730116,512
1506652730124,524
1506652730133,533
1506652730141,546
1506652730145,548
1506652730153,553
1506652730161,555
1506652730170,551
1506652730178,552
1506652730186,543
1506652730194,538
1506652730202,531
1506652730210,519
1506652730219,514
1506652730226,500
1506652730235,494
1506652730244,484
1506652730252,472
1506652730259,469
1506652730268,459
1506652730276,455
1506652730284,452
1506652730292,445
1506652730301,447
1506652730305,443
1506652730313,445
1506652730321,447
1506652730329,445
1506652730338,454
1506652730346,451
1506652730354,456
1506652730362,461
1506652730370,460
1506652730379,468
1506652730386,468
1506652730395,473
1506652730403,477
1506652730411,476
1506652730419,484
1506652730427,484
1506652730435,487
1506652730445,490
1506652730452,487
1506652730460,495
1506652730468,496
1506652730473,504
1506652730481,518
1506652730489,530
1506652730497,557
1506652730506,580
1506652730514,609
1506652730522,639
1506652730530,664
1506652730538,692
1506652730547,708
1506652730555,722
1506652730563,730
1506652730572,725
1506652730579,721
1506652730587,703
1506652730595,684
1506652730604,660
1506652730612,627
1506652730620,600
1506652730628,566
1506652730632,536
1506652730641,507
1506652730649,476
1506652730657,456
1506652730665,434
1506652730673,419
1506652730682,410
1506652730690,398
1506652730698,399
1506652730706,396
1506652730714,398
1506652730722,404
1506652730730,407
1506652730739,421
1506652730748,429
1506652730756,442
1506652730764,458
1506652730771,467
1506652730780,484
1506652730788,495
1506652730792,508
1506652730800,520
1506652730808,527
1506652730816,539
1506652730824,543
1506652730833,547
1506652730841,552
1506652730849,548
1506652730858,548
1506652730866,540
1506652730874,533
1506652730882,527
1506652730890,515
1506652730899,511
1506652730907,500
1506652730915,491
1506652730923,486
1506652730932,475
1506652730940,472
1506652730947,464
1506652730952,458
1506652730960,457
1506652730968,450
1506652730977,451
1506652730985,447
1506652730993,447
1506652731001,451
1506652731009,448
1506652731017,455
1506652731026,454
1506652731034,457
1506652731042,463
1506652731050,462
1506652731058,469
1506652731067,471
1506652731075,474
1506652731083,480
1506652731091,479
1506652731099,486
1506652731107,487
1506652731112,488
1506652731120,494
1506652731128,490
1506652731136,495
1506652731145,495
1506652731153,497
1506652731160,504
1506652731169,510
1506652731177,527
1506652731185,545
1506652731193,569
1506652731201,600
1506652731209,625
1506652731218,658
1506652731226,682
1506652731234,702
1506652731242,721
1506652731251,725
1506652731258,730
1506652731266,723
1506652731271,710
1506652731280,694
1506652731288,666
1506652731296,642
1506652731305,610
1506652731312,577
1506652731321,549
1506652731329,515
1506652731337,490
1506652731345,463
1506652731353,440
1506652731361,427
1506652731369,410
1506652731378,404
1506652731386,398
1506652731394,395
1506652731403,400
1506652731411,400
1506652731419,410
1506652731427,417
1506652731431,426
1506652731439,443
1506652731447,451
1506652731455,468
1506652731464,481
1506652731471,492
1506652731480,509
1506652731488,516
1506652731497,529
1506652731505,537
1506652731513,541
1506652731521,550
1506652731530,546
1506652731538,549
1506652731546,545
1506652731554,538
1506652731562,536
1506652731570,525
1506652731578,519
1506652731587,509
1506652731591,498
1506652731599,494
1506652731607,480
1506652731615,476
1506652731624,468
1506652731632,460
1506652731640,460
1506652731648,453
1506652731656,453
1506652731665,451
1506652731673,447
1506652731681,451
1506652731689,447
1506652731697,452
1506652731706,453
1506652731714,453
1506652731722,460
1506652731730,459
1506652731738,465
1506652731746,468
1506652731750,469
1506652731759,476
1506652731767,476
1506652731775,481
1506652731783,484
1506652731791,484
1506652731800,490
1506652731808,488
1506652731816,493
1506652731824,494
1506652731832,491
1506652731841,497
1506652731849,494
1506652731857,499
1506652731865,503
1506652731873,509
1506652731882,527
1506652731890,543
1506652731898,570
1506652731906,596
1506652731910,622
1506652731918,654
1506652731927,675
1506652731935,698
1506652731943,714
1506652731951,720
1506652731959,726
1506652731967,717
1506652731976,706
1506652731984,688
1506652731992,662
1506652732000,639
1506652732008,605
1506652732017,576
1506652732025,545
1506652732033,512
1506652732041,489
1506652732049,461
1506652732057,442
1506652732066,426
1506652732070,410
1506652732078,404
1506652732086,395
1506652732094,396
1506652732102,397
1506652732111,397
1506652732119,408
1506652732127,415
1506652732135,428
1506652732144,443
1506652732152,454
1506652732160,473
1506652732168,485
1506652732176,501
1506652732184,515
1506652732192,523
1506652732200,538
1506652732210,543
1506652732218,550
1506652732226,555
1506652732234,552
1506652732238,555
1506652732246,547
1506652732255,543
1506652732263,537
1506652732271,525
1506652732279,520
1506652732287,506
1506652732295,499
1506652732304,491
1506652732312,479
1506652732320,477
1506652732328,466
1506652732336,461
1506652732345,457
1506652732353,450
1506652732361,452
1506652732369,448
1506652732377,448
1506652732385,450
1506652732393,448
1506652732398,454
1506652732406,454
1506652732414,458
1506652732422,463
1506652732430,464
1506652732438,471
1506652732447,472
1506652732454,476
1506652732462,481
1506652732471,480
1506652732479,487
1506652732487,486
1506652732496,490
1506652732505,494
1506652732512,492
1506652732520,498
1506652732528,496
1506652732537,497
1506652732545,500
1506652732553,496
1506652732557,500
1506652732565,498
1506652732573,503
1506652732582,514
1506652732590,524
1506652732598,548
1506652732606,569
1506652732614,596
1506652732623,627
1506652732631,650
1506652732639,678
1506652732648,696
1506652732655,710
1506652732664,720
1506652732672,717
1506652732680,714
1506652732688,698
1506652732696,679
1506652732704,657
1506652732712,623
1506652732717,598
1506652732725,563
1506652732733,531
1506652732742,504
1506652732750,471
1506652732758,450
1506652732766,427
1506652732774,410
1506652732783,399
1506652732791,386
1506652732799,386
1506652732807,381
1506652732815,384
1506652732823,393
1506652732832,397
1506652732840,413
1506652732848,425
1506652732856,441
1506652732865,460
1506652732873,473
1506652732877,494
1506652732885,507
1506652732893,521
1506652732902,538
1506652732910,543
1506652732918,555
1506652732927,558
1506652732935,560
1506652732942,562
1506652732951,554
1506652732959,553
1506652732967,544
1506652732975,534
1506652732983,527
1506652732991,512
1506652733000,504
1506652733008,491
1506652733016,481
1506652733024,474
1506652733032,461
1506652733036,460
1506652733045,451
1506652733053,447
1506652733061,446
1506652733069,440
1506652733077,444
1506652733087,441
1506652733095,443
1506652733103,448
1506652733111,446
1506652733119,453
1506652733127,455
1506652733135,458
1506652733143,466
1506652733151,465
1506652733159,472
1506652733167,474
1506652733175,476
1506652733185,483
1506652733192,482
1506652733196,488
1506652733205,489
1506652733213,490
1506652733221,496
1506652733229,492
1506652733238,498
1506652733246,501
1506652733254,506
1506652733263,521
1506652733271,535
1506652733279,560
1506652733287,584
1506652733294,611
1506652733303,643
1506652733311,666
1506652733319,691
1506652733327,708
1506652733335,718
1506652733344,726
1506652733352,720
1506652733356,713
1506652733364,696
1506652733372,673
1506652733380,650
1506652733388,616
1506652733396,589
1506652733405,556
1506652733413,522
1506652733421,497
1506652733429,465
1506652733437,445
1506652733446,426
1506652733454,409
1506652733462,403
1506652733470,392
1506652733479,391
1506652733487,390
1506652733496,390
1506652733504,400
1506652733512,403
1506652733516,417
1506652733525,428
1506652733532,440
1506652733540,459
1506652733549,471
1506652733557,488
1506652733565,503
1506652733573,513
1506652733581,528
1506652733589,535
1506652733597,545
1506652733606,550
1506652733614,549
1506652733622,553
1506652733631,546
1506652733639,543
1506652733647,537
1506652733655,526
1506652733663,522
1506652733672,508
1506652733675,501
1506652733684,490
1506652733692,478
1506652733700,473
1506652733708,460
1506652733716,457
1506652733725,452
1506652733733,444
1506652733741,445
1506652733749,439
1506652733758,441
1506652733766,442
1506652733774,441
1506652733782,448
1506652733790,447
1506652733798,453
1506652733807,457
1506652733814,458
1506652733823,467
1506652733831,466
1506652733835,473
1506652733844,478
1506652733852,478
1506652733860,486
1506652733868,486
1506652733876,490
1506652733884,492
1506652733892,490
1506652733901,496
1506652733909,493
1506652733917,495
1506652733925,496
1506652733933,492
1506652733942,498
1506652733950,498
1506652733958,507
1506652733966,521
1506652733974,536
1506652733982,563
1506652733990,588
1506652733998,620
1506652734003,650
1506652734011,676
1506652734019,705
1506652734027,720
1506652734036,733
1506652734044,739
1506652734053,732
1506652734060,726
1506652734068,706
1506652734076,685
1506652734085,658
1506652734093,623
1506652734101,595
1506652734109,559
1506652734117,528
1506652734126,500
1506652734134,469
1506652734142,450
1506652734151,429
1506652734158,415
1506652734163,408
1506652734171,398
1506652734179,400
1506652734187,396
1506652734196,400
1506652734204,407
1506652734212,411
1506652734220,424
1506652734229,434
1506652734237,447
1506652734245,461
1506652734253,471
1506652734261,488
1506652734269,497
1506652734277,509
1506652734286,519
1506652734293,524
1506652734302,535
1506652734310,537
1506652734318,541
1506652734322,543
1506652734330,537
1506652734339,538
1506652734347,529
1506652734355,523
1506652734363,518
1506652734371,506
1506652734379,502
1506652734388,490
1506652734396,483
1506652734404,477
1506652734412,466
1506652734420,464
1506652734429,455
1506652734437,452
1506652734446,452
1506652734454,445
1506652734461,448
1506652734469,445
1506652734477,446
1506652734482,450
1506652734490,448
1506652734498,455
1506652734507,455
1506652734515,459
1506652734523,464
1506652734531,463
1506652734539,472
1506652734548,472
1506652734556,476
1506652734564,482
1506652734572,481
1506652734580,488
1506652734588,488
1506652734596,490
1506652734605,494
1506652734613,491
1506652734621,497
1506652734629,496
1506652734637,496
1506652734641,499
1506652734650,501
1506652734658,505
1506652734666,502
1506652734674,504
1506652734682,512
1506652734691,520
1506652734699,538
1506652734707,558
1506652734715,582
1506652734724,610
1506652734732,634
1506652734740,669
1506652734748,694
1506652734757,715
1506652734765,731
1506652734772,734
1506652734781,736
1506652734789,725
1506652734797,703
1506652734801,682
1506652734809,650
1506652734817,624
1506652734826,591
1506652734834,558
1506652734842,530
1506652734851,497
1506652734858,474
1506652734867,449
1506652734875,432
1506652734884,420
1506652734891,406
1506652734899,405
1506652734908,400
1506652734916,400
1506652734924,405
1506652734932,407
1506652734941,418
1506652734950,426
1506652734958,436
1506652734962,451
1506652734970,459
1506652734978,476
1506652734986,487
1506652734994,499
1506652735003,514
1506652735011,519
1506652735019,531
1506652735027,535
1506652735035,539
1506652735043,543
1506652735052,540
1506652735060,542
1506652735068,534
1506652735076,527
1506652735084,524
1506652735092,511
1506652735101,506
1506652735109,496
1506652735117,486
1506652735122,482
1506652735130,471
1506652735138,466
1506652735146,460
1506652735154,455
1506652735162,456
1506652735171,448
1506652735179,451
1506652735187,448
1506652735195,447
1506652735204,452
1506652735212,449
1506652735220,454
1506652735228,455
1506652735236,457
1506652735245,463
1506652735252,462
1506652735260,469
1506652735268,471
1506652735276,472
1506652735281,479
1506652735289,477
1506652735297,483
1506652735305,485
1506652735314,484
1506652735321,490
1506652735330,488
1506652735338,492
1506652735347,492
1506652735355,492
1506652735363,496
1506652735371,492
1506652735379,495
1506652735387,493
1506652735395,490
1506652735404,492
1506652735412,488
1506652735420,489
1506652735428,487
1506652735436,485
1506652735441,492
1506652735449,493
1506652735458,509
1506652735465,524
1506652735473,544
1506652735481,576
1506652735490,601
1506652735498,635
1506652735506,664
1506652735514,687
1506652735522,711
1506652735530,721
1506652735538,729
1506652735547,726
1506652735556,715
1506652735564,703
1506652735572,675
1506652735580,652
1506652735588,622
1506652735596,587
1506652735604,559
1506652735609,524
1506652735618,496
1506652735625,470
1506652735633,446
1506652735642,431
1506652735650,413
1506652735658,407
1506652735666,400
1506652735674,395
1506652735682,400
1506652735691,399
1506652735699,405
1506652735707,414
1506652735715,422
1506652735723,437
1506652735731,447
1506652735739,464
1506652735748,478
1506652735756,489
1506652735764,506
1506652735768,514
1506652735777,527
1506652735785,535
1506652735793,538
1506652735801,547
1506652735809,544
1506652735818,544
1506652735826,542
1506652735834,535
1506652735842,533
1506652735850,522
1506652735859,517
1506652735867,509
1506652735875,497
1506652735883,492
1506652735891,479
1506652735899,474
1506652735907,468
1506652735915,459
1506652735923,459
1506652735928,450
1506652735936,451
1506652735945,449
1506652735953,445
1506652735961,451
1506652735970,448
1506652735977,451
1506652735985,453
1506652735993,452
1506652736002,460
1506652736010,461
1506652736018,464
1506652736026,471
1506652736034,471
1506652736042,477
1506652736051,477
1506652736059,481
1506652736068,485
1506652736076,483
1506652736084,492
1506652736088,488
1506652736096,492
1506652736105,494
1506652736112,490
1506652736121,494
1506652736129,491
1506652736137,494
1506652736146,494
1506652736154,491
1506652736161,493
1506652736170,489
1506652736178,488
1506652736187,488
1506652736194,482
1506652736202,487
1506652736210,482
1506652736219,480
1506652736227,481
1506652736235,482
1506652736243,493
1506652736248,502
1506652736256,521
1506652736264,548
1506652736272,573
1506652736280,608
1506652736289,636
1506652736297,665
1506652736305,691
1506652736313,704
1506652736321,720
1506652736329,721
1506652736338,718
1506652736346,710
1506652736355,689
1506652736363,673
1506652736371,644
1506652736379,619
1506652736387,586
1506652736395,547
1506652736403,520
1506652736407,487
1506652736415,461
1506652736424,441
1506652736432,421
1506652736440,411
1506652736448,399
1506652736457,393
1506652736464,392
1506652736473,388
1506652736481,396
1506652736489,400
1506652736497,410
1506652736505,424
1506652736515,436
1506652736523,458
1506652736530,471
1506652736538,484
1506652736547,500
1506652736555,513
1506652736563,532
1506652736567,541
1506652736575,550
1506652736583,556
1506652736591,554
1506652736599,559
1506652736608,555
1506652736616,551
1506652736624,548
1506652736632,536
1506652736640,531
1506652736649,520
1506652736657,510
1506652736665,502
1506652736673,488
1506652736681,485
1506652736689,474
1506652736698,471
1506652736706,467
1506652736715,454
1506652736722,454
1506652736726,449
1506652736734,447
1506652736743,449
1506652736751,446
1506652736760,451
1506652736768,450
1506652736776,453
1506652736784,459
1506652736792,458
1506652736800,467
1506652736809,467
1506652736817,469
1506652736825,476
1506652736833,474
1506652736841,483
1506652736850,485
1506652736858,486
1506652736868,493
1506652736874,490
1506652736883,496
1506652736887,495
1506652736895,498
1506652736903,502
1506652736911,497
1506652736919,501
1506652736928,498
1506652736936,497
1506652736945,499
1506652736952,493
1506652736960,496
1506652736968,492
1506652736976,490
1506652736985,492
1506652736992,488
1506652737001,496
1506652737009,503
1506652737018,514
1506652737026,539
1506652737034,559
1506652737042,591
1506652737047,620
1506652737055,646
1506652737062,676
1506652737071,692
1506652737079,712
1506652737087,720
1506652737095,719
1506652737103,716
1506652737111,697
1506652737120,680
1506652737128,653
1506652737136,621
1506652737144,594
1506652737152,557
1506652737161,528
1506652737169,495
1506652737177,466
1506652737186,446
1506652737194,421
1506652737202,409
1506652737206,396
1506652737214,386
1506652737222,386
1506652737231,381
1506652737239,387
1506652737247,391
1506652737255,398
1506652737263,413
1506652737271,423
1506652737279,440
1506652737288,456
1506652737295,470
1506652737305,491
1506652737313,503
1506652737321,522
1506652737329,534
1506652737337,543
1506652737346,556
1506652737354,559
1506652737361,565
1506652737369,563
1506652737373,559
1506652737382,559
1506652737390,547
1506652737398,543
1506652737406,532
1506652737414,520
1506652737423,515
1506652737431,500
1506652737439,492
1506652737448,484
1506652737456,473
1506652737464,468
1506652737472,456
1506652737480,454
1506652737489,448
1506652737497,444
1506652737506,446
1506652737514,440
1506652737522,443
1506652737530,443
1506652737534,443
1506652737542,449
1506652737550,448
1506652737558,455
1506652737566,458
1506652737574,461
1506652737582,470
1506652737591,469
1506652737599,478
1506652737607,481
1506652737615,482
1506652737624,490
1506652737632,488
1506652737640,493
1506652737648,495
1506652737656,495
1506652737664,500
1506652737673,495
1506652737681,497
1506652737689,498
1506652737694,499
1506652737702,512
1506652737710,521
1506652737718,542
1506652737726,568
1506652737735,595
1506652737743,627
1506652737751,648
1506652737759,673
1506652737767,694
1506652737775,705
1506652737783,718
1506652737791,715
1506652737800,711
1506652737808,698
1506652737816,675
1506652737824,656
1506652737832,625
1506652737840,596
1506652737849,565
1506652737853,532
1506652737861,506
1506652737869,474
1506652737878,452
1506652737886,432
1506652737894,412
1506652737902,404
1506652737910,390
1506652737918,386
1506652737926,385
1506652737935,383
1506652737943,391
1506652737952,395
1506652737960,407
1506652737968,419
1506652737976,431
1506652737984,450
1506652737992,462
1506652738000,482
1506652738008,499
1506652738013,510
1506652738021,529
1506652738029,538
1506652738037,548
1506652738046,557
1506652738054,558
1506652738062,563
1506652738070,558
1506652738079,556
1506652738087,551
1506652738095,540
1506652738103,535
1506652738111,521
1506652738119,512
1506652738128,503
1506652738136,488
1506652738144,482
1506652738152,469
1506652738160,462
1506652738169,455
1506652738173,447
1506652738181,447
1506652738189,440
1506652738197,440
1506652738206,440
1506652738214,436
1506652738222,443
1506652738230,441
1506652738238,445
1506652738246,450
1506652738254,450
1506652738263,459
1506652738271,459
1506652738279,466
1506652738287,471
1506652738295,471
1506652738304,481
1506652738311,479
1506652738319,483
1506652738328,487
1506652738332,486
1506652738341,492
1506652738350,489
1506652738357,491
1506652738366,495
1506652738373,493
1506652738382,502
1506652738390,507
1506652738398,522
1506652738406,542
1506652738414,563
1506652738422,595
1506652738430,622
1506652738439,654
1506652738447,685
1506652738456,705
1506652738463,729
1506652738471,737
1506652738480,742
1506652738487,740
1506652738492,725
1506652738500,711
1506652738508,685
1506652738516,658
1506652738524,629
1506652738533,593
1506652738541,566
1506652738550,529
1506652738558,499
1506652738566,476
1506652738574,447
1506652738582,433
1506652738591,415
1506652738599,406
1506652738607,402
1506652738615,396
1506652738623,400
1506652738631,400
1506652738640,406
1506652738647,418
1506652738652,421
1506652738660,438
1506652738668,447
1506652738676,460
1506652738684,476
1506652738693,485
1506652738701,502
1506652738709,512
1506652738717,523
1506652738725,535
1506652738733,537
1506652738741,547
1506652738750,547
1506652738758,547
1506652738766,549
1506652738774,542
1506652738782,541
1506652738790,532
1506652738800,524
1506652738807,519
1506652738811,505
1506652738820,500
1506652738828,488
1506652738837,480
1506652738846,474
1506652738853,461
1506652738861,460
1506652738869,453
1506652738877,448
1506652738886,449
1506652738895,443
1506652738902,446
1506652738910,443
1506652738918,444
1506652738927,448
1506652738935,446
1506652738943,453
1506652738951,453
1506652738959,457
1506652738967,464
1506652738971,463
1506652738980,472
1506652738988,473
1506652738996,476
1506652739005,483
1506652739012,481
1506652739020,488
1506652739030,488
1506652739037,488
1506652739046,494
1506652739053,489
1506652739062,494
1506652739070,494
1506652739078,494
1506652739086,502
1506652739094,506
1506652739103,523
1506652739111,541
1506652739119,565
1506652739127,599
1506652739135,624
1506652739139,659
1506652739148,686
1506652739156,709
1506652739164,732
1506652739172,738
1506652739180,746
1506652739188,741
1506652739196,732
1506652739205,717
1506652739213,688
1506652739221,664
1506652739230,628
1506652739237,592
1506652739246,561
1506652739254,522
1506652739262,495
1506652739270,467
1506652739278,443
1506652739286,429
1506652739294,411
1506652739298,406
1506652739307,403
1506652739315,399
1506652739323,403
1506652739331,401
1506652739340,411
1506652739348,416
1506652739356,424
1506652739364,439
1506652739372,445
1506652739380,460
1506652739389,472
1506652739397,483
1506652739405,499
1506652739414,507
1506652739421,519
1506652739430,528
1506652739438,534
1506652739446,542
1506652739455,540
1506652739459,543
1506652739467,541
1506652739475,535
1506652739483,534
1506652739491,524
1506652739500,521
1506652739508,512
1506652739516,502
1506652739524,498
1506652739532,484
1506652739540,479
1506652739549,470
1506652739557,461
1506652739565,460
1506652739573,451
1506652739581,450
1506652739590,449
1506652739598,446
1506652739606,452
1506652739614,447
1506652739618,448
1506652739626,448
1506652739634,446
1506652739643,454
1506652739651,453
1506652739659,459
1506652739667,462
1506652739675,463
1506652739684,471
1506652739692,470
1506652739700,477
1506652739709,479
1506652739717,480
1506652739725,487
1506652739733,485
1506652739741,490
1506652739749,491
1506652739759,489
1506652739766,495
1506652739773,491
1506652739778,494
1506652739786,494
1506652739794,491
1506652739802,494
1506652739810,489
1506652739818,491
1506652739827,491
1506652739835,492
1506652739844,504
1506652739852,511
1506652739860,532
1506652739868,558
1506652739876,583
1506652739884,618
1506652739892,647
1506652739901,678
1506652739909,704
1506652739917,720
1506652739925,736
1506652739933,736
1506652739937,735
1506652739946,725
1506652739954,703
1506652739962,684
1506652739970,651
1506652739978,621
1506652739986,590
1506652739995,553
1506652740003,526
1506652740011,492
1506652740019,468
1506652740028,446
1506652740036,426
1506652740044,417
1506652740052,404
1506652740061,401
1506652740069,400
1506652740077,397
1506652740085,405
1506652740093,406
1506652740097,416
1506652740105,428
1506652740113,436
1506652740122,454
1506652740130,463
1506652740138,479
1506652740146,494
1506652740155,502
1506652740163,519
1506652740171,525
1506652740179,534
1506652740187,542
1506652740196,542
1506652740204,548
1506652740212,544
1506652740220,543
1506652740228,539
1506652740236,530
1506652740245,527
1506652740253,515
1506652740258,507
1506652740265,499
1506652740273,485
1506652740281,482
1506652740289,470
1506652740298,464
1506652740306,459
1506652740314,451
1506652740322,452
1506652740331,445
1506652740339,445
1506652740347,446
1506652740355,442
1506652740364,447
1506652740371,445
1506652740380,448
1506652740388,453
1506652740396,451
1506652740404,459
1506652740412,460
1506652740416,464
1506652740425,469
1506652740433,468
1506652740441,478
1506652740450,477
1506652740458,480
1506652740466,483
1506652740474,480
1506652740482,487
1506652740490,484
1506652740498,486
1506652740507,490
1506652740515,491
1506652740523,496
1506652740531,493
1506652740539,494
1506652740547,496
1506652740556,488
1506652740564,490
1506652740572,486
1506652740576,485
1506652740584,489
1506652740592,486
1506652740601,484
1506652740609,480
1506652740618,483
1506652740625,482
1506652740634,479
1506652740642,491
1506652740651,501
1506652740659,522
1506652740666,551
1506652740675,576
1506652740683,613
1506652740691,642
1506652740699,671
1506652740707,699
1506652740716,714
1506652740724,730
1506652740733,731
1506652740736,727
1506652740745,719
1506652740753,696
1506652740761,676
1506652740770,645
1506652740778,614
1506652740786,585
1506652740794,548
1506652740802,525
1506652740810,491
1506652740819,467
1506652740827,445
1506652740835,421
1506652740843,412
1506652740851,397
1506652740859,389
1506652740868,388
1506652740876,383
1506652740884,392
1506652740892,400
1506652740900,409
1506652740905,423
1506652740913,431
1506652740921,445
1506652740929,456
1506652740937,471
1506652740945,489
1506652740953,499
1506652740962,517
1506652740970,526
1506652740978,535
1506652740986,547
1506652740994,547
1506652741003,552
1506652741011,550
1506652741019,545
1506652741027,544
1506652741035,533
1506652741044,529
1506652741052,518
1506652741060,508
1506652741064,503
1506652741072,488
1506652741081,483
1506652741089,472
1506652741097,463
1506652741105,460
1506652741113,451
1506652741121,450
1506652741129,445
1506652741137,443
1506652741146,446
1506652741154,441
1506652741162,446
1506652741171,446
1506652741179,447
1506652741187,455
1506652741195,453
1506652741203,460
1506652741212,462
1506652741219,465
1506652741224,473
1506652741233,472
1506652741240,479
1506652741249,480
1506652741257,482
1506652741265,489
1506652741273,486
1506652741281,493
1506652741289,493
1506652741297,493
1506652741306,497
1506652741314,494
1506652741322,498
1506652741330,498
1506652741338,496
1506652741346,499
1506652741355,494
1506652741363,496
1506652741371,493
1506652741379,489
1506652741384,492
1506652741392,487
1506652741400,490
1506652741408,494
1506652741416,501
1506652741425,521
1506652741433,537
1506652741441,566
1506652741449,594
1506652741458,622
1506652741465,655
1506652741473,675
1506652741482,699
1506652741490,712
1506652741498,717
1506652741507,720
1506652741515,708
1506652741523,695
1506652741531,674
1506652741539,646
1506652741544,620
1506652741552,583
1506652741560,555
1506652741569,522
1506652741576,489
1506652741584,466
1506652741592,437
1506652741600,420
1506652741609,404
1506652741617,389
1506652741625,385
1506652741633,376
1506652741641,379
1506652741650,381
1506652741658,386
1506652741666,400
1506652741674,407
1506652741682,424
1506652741690,440
1506652741698,455
1506652741703,477
1506652741711,489
1506652741719,508
1506652741728,522
1506652741735,533
1506652741744,549
1506652741752,552
1506652741761,560
1506652741769,563
1506652741776,559
1506652741785,561
1506652741794,550
1506652741802,546
1506652741810,536
1506652741818,522
1506652741827,516
1506652741835,501
1506652741843,492
1506652741851,482
1506652741859,470
1506652741863,466
1506652741871,453
1506652741879,451
1506652741887,446
1506652741895,440
1506652741905,444
1506652741912,439
1506652741920,440
1506652741928,441
1506652741936,441
1506652741945,447
1506652741953,447
1506652741962,453
1506652741969,457
1506652741977,457
1506652741986,465
1506652741994,464
1506652742002,469
1506652742010,474
1506652742018,474
1506652742022,482
1506652742031,481
1506652742039,486
1506652742047,489
1506652742056,488
1506652742064,494
1506652742071,491
1506652742079,493
1506652742088,495
1506652742096,493
1506652742106,500
1506652742112,503
1506652742122,515
1506652742130,533
1506652742138,552
1506652742146,582
1506652742154,606
1506652742162,636
1506652742170,663
1506652742178,683
1506652742182,705
1506652742190,713
1506652742199,719
1506652742207,718
1506652742215,704
1506652742224,693
1506652742232,668
1506652742240,643
1506652742248,615
1506652742256,580
1506652742265,554
1506652742272,520
1506652742280,492
1506652742289,467
1506652742297,440
1506652742305,426
1506652742313,408
1506652742321,399
1506652742329,393
1506652742337,385
1506652742342,389
1506652742350,388
1506652742359,394
1506652742367,403
1506652742375,409
1506652742383,426
1506652742391,435
1506652742400,451
1506652742408,467
1506652742416,480
1506652742424,499
1506652742432,510
1506652742441,523
1506652742449,538
1506652742457,542
1506652742466,553
1506652742473,553
1506652742481,555
1506652742490,555
1506652742497,548
1506652742502,547
1506652742510,536
1506652742518,528
1506652742526,520
1506652742534,505
1506652742542,500
1506652742551,486
1506652742560,477
1506652742568,470
1506652742576,457
1506652742584,455
1506652742592,446
1506652742600,443
1506652742609,442
1506652742617,436
1506652742625,442
1506652742633,439
1506652742641,441
1506652742649,447
1506652742658,445
1506652742666,454
1506652742670,455
1506652742678,459
1506652742686,465
1506652742695,465
1506652742703,474
1506652742711,474
1506652742719,478
1506652742727,484
1506652742736,482
1506652742744,489
1506652742752,488
1506652742760,491
1506652742768,496
1506652742777,493
1506652742785,498
1506652742793,496
1506652742801,499
1506652742809,506
1506652742817,510
1506652742825,530
1506652742830,546
1506652742838,571
1506652742846,602
1506652742854,627
1506652742862,661
1506652742871,686
1506652742879,709
1506652742887,730
1506652742895,736
1506652742903,742
1506652742911,735
1506652742920,722
1506652742928,707
1506652742936,679
1506652742945,654
1506652742952,621
1506652742960,587
1506652742969,557
1506652742977,521
1506652742985,495
1506652742989,466
1506652742998,443
1506652743005,428
1506652743014,410
1506652743022,406
1506652743030,397
1506652743038,394
1506652743047,398
1506652743055,396
1506652743063,406
1506652743071,413
1506652743079,422
1506652743087,437
1506652743095,446
1506652743104,465
1506652743112,477
1506652743120,491
1506652743128,508
1506652743136,515
1506652743144,530
1506652743148,536
1506652743157,542
1506652743165,550
1506652743173,547
1506652743181,551
1506652743190,547
1506652743198,542
1506652743206,539
1506652743214,526
1506652743223,521
1506652743230,510
1506652743239,500
1506652743247,494
1506652743256,480
1506652743264,475
1506652743272,466
1506652743280,457
1506652743288,455
1506652743297,446
1506652743305,446
1506652743309,441
1506652743317,439
1506652743325,443
1506652743334,439
1506652743342,444
1506652743350,445
1506652743358,446
1506652743366,453
1506652743374,452
1506652743382,459
1506652743390,463
1506652743398,465
1506652743406,473
1506652743415,473
1506652743423,480
1506652743431,482
1506652743439,484
1506652743448,491
1506652743456,488
1506652743464,492
1506652743468,492
1506652743476,491
1506652743485,495
1506652743492,492
1506652743502,495
1506652743510,494
1506652743518,492
1506652743526,500
1506652743534,501
1506652743542,518
1506652743551,536
1506652743559,557
1506652743567,589
1506652743575,614
1506652743583,647
1506652743591,675
1506652743600,698
1506652743608,720
1506652743616,728
1506652743624,735
1506652743628,732
1506652743636,718
1506652743644,706
1506652743653,678
1506652743661,654
1506652743670,623
1506652743678,588
1506652743686,560
1506652743694,525
1506652743702,498
1506652743710,470
1506652743718,445
1506652743727,432
1506652743735,414
1506652743743,408
1506652743751,403
1506652743760,398
1506652743767,402
1506652743776,401
1506652743784,409
1506652743788,417
1506652743796,425
1506652743804,440
1506652743812,449
1506652743820,466
1506652743829,479
1506652743837,490
1506652743845,508
1506652743854,516
1506652743862,528
1506652743870,538
1506652743878,541
1506652743886,549
1506652743895,547
1506652743903,549
1506652743911,547
1506652743919,539
1506652743927,537
1506652743936,525
1506652743944,519
1506652743948,512
1506652743956,499
1506652743964,494
1506652743972,482
1506652743980,474
1506652743988,467
1506652743997,457
1506652744005,456
1506652744013,447
1506652744021,447
1506652744029,445
1506652744038,439
1506652744046,444
1506652744054,441
1506652744062,444
1506652744070,447
1506652744079,446
1506652744087,453
1506652744095,454
1506652744103,460
1506652744107,464
1506652744116,465
1506652744124,474
1506652744132,472
1506652744140,478
1506652744148,482
1506652744157,482
1506652744165,489
1506652744173,487
1506652744180,490
1506652744189,492
1506652744197,489
1506652744205,494
1506652744213,490
1506652744221,493
1506652744230,493
1506652744238,490
1506652744246,494
1506652744255,488
1506652744263,491
1506652744267,494
1506652744275,496
1506652744283,511
1506652744291,525
1506652744299,548
1506652744307,576
1506652744316,602
1506652744324,637
1506652744332,661
1506652744340,687
1506652744348,708
1506652744357,716
1506652744365,727
1506652744373,721
1506652744381,713
1506652744390,699
1506652744398,673
1506652744406,651
1506652744414,618
1506652744422,588
1506652744430,557
1506652744435,523
1506652744443,497
1506652744451,467
1506652744459,445
1506652744468,430
1506652744476,412
1506652744484,406
1506652744492,395
1506652744501,393
1506652744509,393
1506652744517,392
1506652744525,402
1506652744533,406
1506652744542,418
1506652744550,432
1506652744558,441
1506652744566,463
1506652744574,474
1506652744582,489
1506652744590,505
1506652744594,514
1506652744603,529
1506652744611,534
1506652744619,542
1506652744628,549
1506652744635,546
1506652744644,552
1506652744652,545
1506652744660,540
1506652744668,538
1506652744677,525
1506652744684,520
1506652744693,508
1506652744701,498
1506652744709,491
1506652744717,478
1506652744725,474
1506652744733,463
1506652744741,458
1506652744749,456
1506652744754,448
1506652744763,450
1506652744771,446
1506652744778,445
1506652744787,448
1506652744795,445
1506652744805,451
1506652744813,450
1506652744820,454
1506652744828,459
1506652744837,458
1506652744845,467
1506652744853,467
1506652744861,471
1506652744870,477
1506652744878,476
1506652744886,483
1506652744894,483
1506652744902,485
1506652744910,491
1506652744914,487
1506652744923,493
1506652744931,491
1506652744939,492
1506652744947,496
1506652744955,491
1506652744964,496
1506652744971,493
1506652744981,491
1506652744989,493
1506652744997,487
1506652745005,490
1506652745012,489
1506652745021,494
1506652745029,507
1506652745037,517
1506652745046,544
1506652745054,567
1506652745062,595
1506652745069,629
1506652745074,654
1506652745082,682
1506652745090,701
1506652745099,715
1506652745107,725
1506652745115,720
1506652745123,715
1506652745131,697
1506652745139,676
1506652745148,653
1506652745156,619
1506652745164,590
1506652745172,556
1506652745181,524
1506652745188,496
1506652745197,463
1506652745205,443
1506652745213,421
1506652745221,405
1506652745229,395
1506652745234,383
1506652745242,382
1506652745251,379
1506652745259,380
1506652745267,391
1506652745275,395
1506652745283,411
1506652745291,423
1506652745300,438
1506652745308,459
1506652745316,471
1506652745324,493
1506652745332,507
1506652745340,520
1506652745349,538
1506652745357,543
1506652745365,555
1506652745373,559
1506652745381,559
1506652745389,564
1506652745393,556
1506652745401,554
1506652745410,545
1506652745418,535
1506652745426,528
1506652745434,512
1506652745442,505
1506652745450,493
1506652745459,480
1506652745468,475
1506652745476,461
1506652745484,457
1506652745492,450
1506652745500,443
1506652745508,443
1506652745516,437
1506652745525,438
1506652745533,436
1506652745541,437
1506652745549,443
1506652745553,442
1506652745562,450
1506652745570,453
1506652745578,455
1506652745586,464
1506652745594,464
1506652745602,471
1506652745611,474
1506652745619,476
1506652745627,483
1506652745635,481
1506652745643,487
1506652745651,488
1506652745660,487
1506652745668,493
1506652745676,490
1506652745684,493
1506652745692,494
1506652745701,493
1506652745709,500
1506652745713,504
1506652745721,519
1506652745729,537
1506652745737,558
1506652745745,591
1506652745754,615
1506652745762,646
1506652745770,672
1506652745778,692
1506652745787,712
1506652745795,719
1506652745803,723
1506652745811,718
1506652745819,703
1506652745827,689
1506652745836,661
1506652745844,636
1506652745852,605
1506652745861,569
1506652745869,542
1506652745872,507
1506652745881,480
1506652745889,454
1506652745897,431
1506652745905,417
1506652745913,399
1506652745921,392
1506652745930,386
1506652745938,380
1506652745946,385
1506652745955,385
1506652745963,394
1506652745971,402
1506652745979,412
1506652745987,429
1506652745995,439
1506652746004,459
1506652746012,475
1506652746020,487
1506652746028,507
1506652746032,516
1506652746040,531
1506652746048,541
1506652746057,546
1506652746066,555
1506652746073,553
1506652746081,555
1506652746090,552
1506652746098,543
1506652746106,541
1506652746114,527
1506652746122,519
1506652746130,509
1506652746138,495
1506652746146,489
1506652746156,475
1506652746164,468
1506652746171,460
1506652746179,450
1506652746187,450
1506652746196,441
1506652746201,441
1506652746209,441
1506652746217,436
1506652746225,442
1506652746233,440
1506652746241,444
1506652746250,448
1506652746258,448
1506652746266,456
1506652746274,456
1506652746282,462
1506652746290,467
1506652746298,467
1506652746306,477
1506652746315,476
1506652746323,481
1506652746331,485
1506652746339,484
1506652746347,491
1506652746356,488
1506652746360,492
1506652746368,493
1506652746376,490
1506652746384,496
1506652746393,492
1506652746401,495
1506652746409,499
1506652746417,500
1506652746426,515
1506652746434,527
1506652746442,551
1506652746450,579
1506652746459,606
1506652746467,642
1506652746475,668
1506652746483,698
1506652746491,721
1506652746500,732
1506652746508,746
1506652746516,743
1506652746520,736
1506652746528,723
1506652746536,698
1506652746545,676
1506652746553,641
1506652746561,609
1506652746569,576
1506652746577,539
1506652746585,512
1506652746594,479
1506652746602,454
1506652746610,436
1506652746618,416
1506652746627,408
1506652746635,397
1506652746643,394
1506652746651,396
1506652746659,394
1506652746667,403
1506652746675,407
1506652746680,417
1506652746688,430
1506652746696,438
1506652746705,457
1506652746712,466
1506652746721,480
1506652746729,496
1506652746737,504
1506652746745,519
1506652746753,526
1506652746762,536
1506652746770,544
1506652746778,543
1506652746786,549
1506652746795,545
1506652746802,542
1506652746811,539
1506652746819,528
1506652746827,524
1506652746835,513
1506652746839,504
1506652746848,498
1506652746856,484
1506652746864,479
1506652746872,468
1506652746880,462
1506652746888,458
1506652746897,450
1506652746905,451
1506652746913,445
1506652746921,444
1506652746930,446
1506652746938,441
1506652746946,446
1506652746954,444
1506652746962,447
1506652746970,452
1506652746978,451
1506652746987,459
1506652746995,460
1506652747000,464
1506652747008,471
1506652747015,471
1506652747024,479
1506652747032,480
1506652747040,483
1506652747048,488
1506652747056,485
1506652747065,491
1506652747073,489
1506652747081,490
