time,value
1506650690982,491
1506650692546,500
1506650692555,478
1506650692563,469
1506650692571,471
1506650692579,470
1506650692587,471
1506650692595,472
1506650692603,468
1506650692612,469
1506650692620,465
1506650692628,461
1506650692636,460
1506650692644,453
1506650692652,452
1506650692660,447
1506650692668,443
1506650692677,442
1506650692685,437
1506650692693,438
1506650692697,435
1506650692706,435
1506650692714,437
1506650692723,436
1506650692731,441
1506650692740,441
1506650692747,444
1506650692755,449
1506650692763,448
1506650692772,453
1506650692779,453
1506650692788,456
1506650692796,458
1506650692805,456
1506650692813,462
1506650692821,466
1506650692829,475
1506650692837,492
1506650692845,509
1506650692853,537
1506650692858,566
1506650692866,599
1506650692874,634
1506650692882,662
1506650692890,691
1506650692899,709
1506650692907,722
1506650692916,728
1506650692924,721
1506650692931,711
1506650692940,691
1506650692948,666
1506650692956,641
1506650692964,606
1506650692972,577
1506650692980,544
1506650692989,513
1506650692997,488
1506650693005,459
1506650693013,441
1506650693017,421
1506650693025,405
1506650693034,397
1506650693042,386
1506650693050,385
1506650693058,382
1506650693066,384
1506650693075,393
1506650693083,399
1506650693091,414
1506650693099,426
1506650693109,440
1506650693116,457
1506650693124,468
1506650693132,485
1506650693140,496
1506650693148,506
1506650693157,517
1506650693164,520
1506650693173,526
1506650693177,527
1506650693185,526
1506650693193,526
1506650693202,517
1506650693209,514
1506650693217,505
1506650693226,495
1506650693234,489
1506650693242,478
1506650693250,472
1506650693258,464
1506650693267,457
1506650693275,454
1506650693283,447
1506650693291,447
1506650693299,444
1506650693308,442
1506650693316,444
1506650693324,441
1506650693333,443
1506650693337,443
1506650693345,443
1506650693353,448
1506650693361,446
1506650693369,450
1506650693377,451
1506650693385,451
1506650693394,457
1506650693402,460
1506650693410,473
1506650693418,487
1506650693426,509
1506650693435,540
1506650693443,571
1506650693451,609
1506650693459,645
1506650693467,679
1506650693476,710
1506650693484,730
1506650693492,747
1506650693496,753
1506650693504,748
1506650693513,739
1506650693520,717
1506650693529,693
1506650693538,663
1506650693546,628
1506650693553,595
1506650693562,558
1506650693570,527
1506650693578,494
1506650693586,467
1506650693594,444
1506650693603,420
1506650693611,406
1506650693619,396
1506650693627,382
1506650693636,380
1506650693644,375
1506650693651,379
1506650693656,384
1506650693664,392
1506650693672,405
1506650693681,415
1506650693689,432
1506650693697,447
1506650693706,460
1506650693714,477
1506650693722,486
1506650693730,500
1506650693738,509
1506650693747,515
1506650693754,522
1506650693762,523
1506650693770,526
1506650693779,523
1506650693787,518
1506650693795,515
1506650693803,504
1506650693812,500
1506650693815,491
1506650693824,481
1506650693833,477
1506650693841,465
1506650693848,461
1506650693856,455
1506650693864,449
1506650693873,449
1506650693881,444
1506650693889,444
1506650693897,443
1506650693906,443
1506650693914,447
1506650693922,448
1506650693930,452
1506650693939,453
1506650693947,453
1506650693955,458
1506650693963,458
1506650693971,462
1506650693976,465
1506650693984,467
1506650693992,476
1506650694000,483
1506650694008,502
1506650694016,523
1506650694024,550
1506650694034,586
1506650694041,618
1506650694049,656
1506650694057,690
1506650694066,717
1506650694074,742
1506650694082,754
1506650694090,761
1506650694098,757
1506650694107,743
1506650694115,727
1506650694123,696
1506650694131,667
1506650694136,632
1506650694144,594
1506650694152,562
1506650694160,527
1506650694168,499
1506650694176,471
1506650694184,446
1506650694193,431
1506650694201,412
1506650694209,403
1506650694217,395
1506650694225,389
1506650694234,391
1506650694242,390
1506650694249,397
1506650694257,406
1506650694266,416
1506650694274,432
1506650694282,443
1506650694290,459
1506650694294,472
1506650694303,483
1506650694311,499
1506650694319,506
1506650694327,516
1506650694336,522
1506650694344,523
1506650694352,527
1506650694360,523
1506650694368,522
1506650694376,516
1506650694384,508
1506650694393,503
1506650694401,492
1506650694409,486
1506650694417,478
1506650694425,469
1506650694434,464
1506650694442,455
1506650694450,451
1506650694454,449
1506650694462,444
1506650694471,446
1506650694479,443
1506650694487,446
1506650694495,447
1506650694503,447
1506650694512,453
1506650694520,452
1506650694528,458
1506650694536,461
1506650694545,460
1506650694553,466
1506650694561,465
1506650694569,469
1506650694577,470
1506650694586,470
1506650694594,477
1506650694602,483
1506650694610,498
1506650694614,518
1506650694622,541
1506650694631,576
1506650694639,607
1506650694647,645
1506650694655,681
1506650694663,709
1506650694672,736
1506650694680,750
1506650694688,760
1506650694696,759
1506650694704,746
1506650694713,731
1506650694721,702
1506650694729,673
1506650694738,640
1506650694746,602
1506650694754,570
1506650694762,533
1506650694770,502
1506650694775,474
1506650694783,447
1506650694791,431
1506650694799,411
1506650694807,400
1506650694815,391
1506650694823,384
1506650694832,387
1506650694840,386
1506650694848,393
1506650694856,402
1506650694864,410
1506650694872,425
1506650694880,437
1506650694888,453
1506650694897,467
1506650694905,477
1506650694913,492
1506650694921,499
1506650694930,510
1506650694934,515
1506650694942,516
1506650694951,521
1506650694959,519
1506650694967,519
1506650694975,515
1506650694983,507
1506650694991,504
1506650695000,494
1506650695008,488
1506650695016,481
1506650695024,471
1506650695032,467
1506650695041,458
1506650695048,454
1506650695056,451
1506650695065,445
1506650695073,446
1506650695082,443
1506650695090,443
1506650695098,445
1506650695102,443
1506650695110,448
1506650695119,448
1506650695127,452
1506650695135,456
1506650695143,458
1506650695150,464
1506650695159,465
1506650695167,468
1506650695175,471
1506650695183,471
1506650695192,475
1506650695200,472
1506650695208,476
1506650695216,478
1506650695224,481
1506650695233,495
1506650695241,508
1506650695250,531
1506650695258,562
1506650695263,593
1506650695271,632
1506650695278,664
1506650695286,696
1506650695295,724
1506650695303,742
1506650695311,757
1506650695319,756
1506650695327,750
1506650695336,735
1506650695344,709
1506650695352,682
1506650695360,647
1506650695368,612
1506650695376,576
1506650695385,540
1506650695393,509
1506650695401,477
1506650695409,453
1506650695417,432
1506650695421,412
1506650695429,402
1506650695438,390
1506650695446,385
1506650695454,385
1506650695462,384
1506650695471,392
1506650695478,398
1506650695487,410
1506650695495,424
1506650695503,436
1506650695511,453
1506650695519,465
1506650695528,480
1506650695536,494
1506650695544,502
1506650695552,515
1506650695560,520
1506650695568,526
1506650695576,531
1506650695581,527
1506650695589,528
1506650695597,522
1506650695605,517
1506650695613,510
1506650695622,499
1506650695630,494
1506650695639,483
1506650695647,474
1506650695654,469
1506650695663,459
1506650695671,456
1506650695679,450
1506650695687,446
1506650695695,446
1506650695703,441
1506650695712,444
1506650695720,441
1506650695728,444
1506650695736,447
1506650695741,447
1506650695749,453
1506650695757,454
1506650695765,457
1506650695774,461
1506650695782,460
1506650695790,466
1506650695798,465
1506650695806,467
1506650695815,469
1506650695823,467
1506650695831,472
1506650695840,472
1506650695848,476
1506650695855,488
1506650695863,499
1506650695872,522
1506650695880,547
1506650695888,580
1506650695896,616
1506650695901,649
1506650695909,686
1506650695917,713
1506650695925,735
1506650695933,751
1506650695942,752
1506650695950,750
1506650695958,735
1506650695966,713
1506650695974,686
1506650695982,651
1506650695990,618
1506650695999,580
1506650696007,544
1506650696015,512
1506650696023,479
1506650696032,455
1506650696040,432
1506650696048,414
1506650696055,401
1506650696060,388
1506650696069,385
1506650696077,380
1506650696085,383
1506650696094,390
1506650696102,395
1506650696110,409
1506650696118,421
1506650696126,436
1506650696134,453
1506650696142,466
1506650696151,483
1506650696158,495
1506650696166,507
1506650696175,518
1506650696183,522
1506650696191,530
1506650696199,531
1506650696207,530
1506650696216,530
1506650696220,522
1506650696228,519
1506650696236,510
1506650696245,500
1506650696253,493
1506650696261,480
1506650696269,474
1506650696277,463
1506650696285,456
1506650696293,452
1506650696302,443
1506650696310,442
1506650696318,438
1506650696326,436
1506650696335,437
1506650696344,434
1506650696352,438
1506650696359,438
1506650696368,442
1506650696376,446
1506650696380,446
1506650696388,452
1506650696396,454
1506650696404,458
1506650696413,463
1506650696421,463
1506650696429,469
1506650696438,470
1506650696446,472
1506650696454,476
1506650696462,474
1506650696470,480
1506650696478,479
1506650696486,480
1506650696494,486
1506650696503,491
1506650696511,507
1506650696519,526
1506650696527,553
1506650696535,587
1506650696540,619
1506650696548,657
1506650696556,688
1506650696564,715
1506650696573,739
1506650696581,748
1506650696589,754
1506650696597,746
1506650696605,729
1506650696613,709
1506650696621,677
1506650696629,646
1506650696638,609
1506650696646,573
1506650696654,540
1506650696662,504
1506650696670,476
1506650696678,448
1506650696687,425
1506650696695,410
1506650696699,392
1506650696707,385
1506650696716,378
1506650696724,376
1506650696732,381
1506650696740,384
1506650696748,396
1506650696757,406
1506650696765,420
1506650696773,437
1506650696781,450
1506650696789,469
1506650696797,482
1506650696806,495
1506650696814,508
1506650696822,515
1506650696830,524
1506650696839,528
1506650696847,528
1506650696854,530
1506650696859,523
1506650696867,520
1506650696875,513
1506650696883,504
1506650696891,499
1506650696900,487
1506650696908,480
1506650696916,471
1506650696924,462
1506650696932,458
1506650696941,449
1506650696949,448
1506650696957,444
1506650696965,442
1506650696973,445
1506650696981,444
1506650696990,449
1506650696998,450
1506650697006,453
1506650697014,459
1506650697019,460
1506650697027,466
1506650697036,468
1506650697044,470
1506650697052,476
1506650697060,475
1506650697068,479
1506650697076,479
1506650697084,480
1506650697092,482
1506650697101,480
1506650697109,482
1506650697117,480
1506650697125,479
1506650697133,484
1506650697142,488
1506650697150,503
1506650697158,519
1506650697166,543
1506650697174,576
1506650697179,605
1506650697187,642
1506650697195,672
1506650697203,697
1506650697211,721
1506650697219,731
1506650697227,738
1506650697236,733
1506650697244,719
1506650697252,702
1506650697261,673
1506650697269,645
1506650697277,610
1506650697285,574
1506650697293,543
1506650697302,507
1506650697310,478
1506650697318,450
1506650697326,426
1506650697334,409
1506650697338,391
1506650697347,383
1506650697354,376
1506650697363,373
1506650697371,379
1506650697379,383
1506650697387,396
1506650697395,408
1506650697404,421
1506650697412,441
1506650697420,456
1506650697428,474
1506650697437,490
1506650697445,503
1506650697453,517
1506650697461,522
1506650697469,531
1506650697478,533
1506650697486,532
1506650697494,533
1506650697498,526
1506650697506,522
1506650697514,513
1506650697523,503
1506650697531,496
1506650697539,483
1506650697547,477
1506650697555,468
1506650697563,459
1506650697572,456
1506650697580,447
1506650697588,447
1506650697596,444
1506650697604,441
1506650697613,443
1506650697621,441
1506650697629,445
1506650697638,447
1506650697646,449
1506650697654,456
1506650697661,457
1506650697665,464
1506650697674,467
1506650697682,468
1506650697690,475
1506650697698,475
1506650697706,477
1506650697715,478
1506650697723,477
1506650697731,481
1506650697740,480
1506650697748,485
1506650697755,492
1506650697765,504
1506650697773,525
1506650697781,547
1506650697789,580
1506650697797,613
1506650697806,646
1506650697814,681
1506650697821,707
1506650697826,729
1506650697834,742
1506650697842,745
1506650697850,744
1506650697858,727
1506650697867,709
1506650697875,682
1506650697883,649
1506650697891,619
1506650697899,580
1506650697907,547
1506650697916,513
1506650697924,480
1506650697932,456
1506650697940,430
1506650697948,413
1506650697957,397
1506650697965,385
1506650697973,381
1506650697981,375
1506650697986,380
1506650697994,386
1506650698002,394
1506650698010,410
1506650698018,422
1506650698026,441
1506650698035,458
1506650698043,475
1506650698051,494
1506650698059,506
1506650698067,520
1506650698075,531
1506650698084,535
1506650698092,542
1506650698100,540
1506650698108,540
1506650698116,535
1506650698125,526
1506650698133,521
1506650698141,508
1506650698146,500
1506650698155,489
1506650698162,477
1506650698170,470
1506650698178,457
1506650698186,451
1506650698194,446
1506650698203,439
1506650698211,440
1506650698219,435
1506650698227,437
1506650698235,438
1506650698243,439
1506650698251,445
1506650698259,445
1506650698268,451
1506650698276,456
1506650698285,458
1506650698292,466
1506650698301,467
1506650698305,471
1506650698313,475
1506650698321,475
1506650698330,479
1506650698338,479
1506650698346,481
1506650698353,483
1506650698362,485
1506650698370,496
1506650698378,507
1506650698386,529
1506650698394,558
1506650698402,588
1506650698411,627
1506650698419,661
1506650698427,696
1506650698436,725
1506650698444,744
1506650698452,760
1506650698460,761
1506650698464,756
1506650698472,742
1506650698481,717
1506650698489,691
1506650698498,656
1506650698505,620
1506650698514,586
1506650698522,548
1506650698531,517
1506650698539,484
1506650698547,459
1506650698555,436
1506650698563,422
1506650698571,413
1506650698579,399
1506650698587,391
1506650698595,386
1506650698603,384
1506650698612,392
1506650698620,397
1506650698624,409
1506650698632,423
1506650698641,435
1506650698649,454
1506650698657,466
1506650698665,483
1506650698674,496
1506650698681,506
1506650698690,518
1506650698699,522
1506650698706,528
1506650698715,531
1506650698723,528
1506650698731,528
1506650698739,521
1506650698747,516
1506650698755,510
1506650698763,500
1506650698771,495
1506650698779,483
1506650698783,477
1506650698792,469
1506650698800,459
1506650698808,457
1506650698816,449
1506650698824,447
1506650698832,446
1506650698841,442
1506650698849,445
1506650698857,443
1506650698865,446
1506650698874,449
1506650698882,450
1506650698890,458
1506650698898,458
1506650698906,462
1506650698914,467
1506650698923,470
1506650698931,476
1506650698939,475
1506650698944,477
1506650698952,479
1506650698960,479
1506650698969,482
1506650698976,479
1506650698985,482
1506650698993,487
1506650699001,493
1506650699009,512
1506650699017,533
1506650699026,563
1506650699034,598
1506650699042,634
1506650699051,675
1506650699059,708
1506650699067,738
1506650699075,761
1506650699083,770
1506650699091,776
1506650699099,765
1506650699103,748
1506650699111,724
1506650699120,691
1506650699128,660
1506650699136,621
1506650699144,585
1506650699153,551
1506650699161,515
1506650699169,488
1506650699177,459
1506650699186,440
1506650699194,425
1506650699202,409
1506650699210,404
1506650699220,397
1506650699227,395
1506650699234,398
1506650699243,400
1506650699251,409
1506650699259,416
1506650699263,427
1506650699271,440
1506650699279,451
1506650699288,467
1506650699296,478
1506650699305,490
1506650699313,503
1506650699321,508
1506650699329,517
1506650699337,520
1506650699345,521
1506650699354,522
1506650699361,518
1506650699369,517
1506650699378,509
1506650699386,503
1506650699394,498
1506650699402,487
1506650699410,482
1506650699419,472
1506650699423,465
1506650699431,460
1506650699440,453
1506650699448,451
1506650699456,446
1506650699464,444
1506650699472,444
1506650699480,441
1506650699488,445
1506650699496,446
1506650699505,447
1506650699513,452
1506650699521,452
1506650699529,457
1506650699538,459
1506650699546,463
1506650699554,467
1506650699562,467
1506650699571,473
1506650699579,474
1506650699583,477
1506650699591,481
1506650699599,479
1506650699607,484
1506650699615,481
1506650699624,481
1506650699632,483
1506650699640,480
1506650699648,481
1506650699656,478
1506650699664,476
1506650699672,479
1506650699681,479
1506650699689,490
1506650699698,503
1506650699706,526
1506650699714,558
1506650699722,592
1506650699731,635
1506650699739,674
1506650699743,711
1506650699751,747
1506650699758,769
1506650699767,787
1506650699775,790
1506650699783,783
1506650699791,768
1506650699800,742
1506650699808,714
1506650699816,677
1506650699824,639
1506650699832,602
1506650699841,561
1506650699849,531
1506650699857,498
1506650699866,471
1506650699874,451
1506650699882,432
1506650699890,422
1506650699898,411
1506650699906,405
1506650699910,404
1506650699919,400
1506650699927,405
1506650699935,408
1506650699943,415
1506650699952,426
1506650699960,433
1506650699968,448
1506650699976,458
1506650699984,470
1506650699992,484
1506650700000,493
1506650700009,506
1506650700017,512
1506650700025,518
1506650700033,524
1506650700042,523
1506650700050,525
1506650700057,521
1506650700065,515
1506650700070,511
1506650700078,501
1506650700086,497
1506650700094,487
1506650700102,479
1506650700110,473
1506650700119,463
1506650700127,461
1506650700135,453
1506650700144,449
1506650700152,449
1506650700160,444
1506650700168,445
1506650700176,444
1506650700184,444
1506650700193,447
1506650700201,446
1506650700209,451
1506650700217,452
1506650700225,455
1506650700229,460
1506650700238,459
1506650700246,465
1506650700254,466
1506650700262,467
1506650700271,471
1506650700279,470
1506650700287,473
1506650700295,473
1506650700303,473
1506650700312,475
1506650700320,473
1506650700328,476
1506650700336,474
1506650700344,473
1506650700353,475
1506650700361,472
1506650700369,474
1506650700377,473
1506650700385,471
1506650700389,472
1506650700397,468
1506650700406,469
1506650700414,466
1506650700422,465
1506650700430,466
1506650700438,462
1506650700447,468
1506650700455,476
1506650700463,490
1506650700471,516
1506650700479,544
1506650700488,583
1506650700496,623
1506650700504,666
1506650700512,709
1506650700520,742
1506650700529,775
1506650700537,793
1506650700545,801
1506650700549,800
1506650700557,782
1506650700565,761
1506650700573,728
1506650700582,691
1506650700590,655
1506650700598,613
1506650700606,577
1506650700615,539
1506650700623,505
1506650700631,479
1506650700640,452
1506650700648,436
1506650700656,421
1506650700664,409
1506650700672,405
1506650700680,398
1506650700689,400
1506650700697,402
1506650700705,405
1506650700709,414
1506650700717,419
1506650700725,432
1506650700734,442
1506650700742,453
1506650700750,467
1506650700758,476
1506650700766,490
1506650700775,498
1506650700783,504
1506650700791,513
1506650700799,514
1506650700807,518
1506650700815,516
1506650700824,514
1506650700832,514
1506650700840,505
1506650700848,503
1506650700856,496
1506650700864,487
1506650700869,483
1506650700877,472
1506650700885,467
1506650700894,461
1506650700901,454
1506650700910,451
1506650700917,444
1506650700925,445
1506650700934,441
1506650700943,439
1506650700951,442
1506650700959,440
1506650700967,443
1506650700975,446
1506650700983,447
1506650700992,452
1506650701000,452
1506650701008,457
1506650701016,458
1506650701024,460
1506650701030,465
1506650701037,463
1506650701045,468
1506650701053,469
1506650701061,468
1506650701069,472
1506650701077,470
1506650701086,471
1506650701094,470
1506650701102,469
1506650701110,470
1506650701118,466
1506650701127,468
1506650701135,466
1506650701143,464
1506650701151,466
1506650701160,463
1506650701168,464
1506650701176,464
1506650701184,461
1506650701188,463
1506650701196,459
1506650701206,461
1506650701213,459
1506650701222,459
1506650701230,467
1506650701237,473
1506650701246,493
1506650701253,517
1506650701262,546
1506650701270,588
1506650701278,625
1506650701287,668
1506650701295,705
1506650701303,737
1506650701311,765
1506650701319,778
1506650701327,786
1506650701335,781
1506650701344,763
1506650701348,742
1506650701356,708
1506650701364,673
1506650701373,634
1506650701381,593
1506650701390,557
1506650701397,517
1506650701406,487
1506650701414,457
1506650701422,434
1506650701430,418
1506650701438,402
1506650701446,395
1506650701454,389
1506650701462,385
1506650701470,390
1506650701479,390
1506650701487,399
1506650701495,406
1506650701503,415
1506650701508,430
1506650701516,440
1506650701524,456
1506650701533,469
1506650701541,480
1506650701549,495
1506650701557,502
1506650701565,511
1506650701573,518
1506650701582,520
1506650701590,524
1506650701598,521
1506650701606,520
1506650701614,516
1506650701622,508
1506650701630,503
1506650701639,491
1506650701647,485
1506650701655,477
1506650701663,466
1506650701667,462
1506650701675,452
1506650701684,449
1506650701692,445
1506650701701,439
1506650701709,440
1506650701717,436
1506650701725,438
1506650701734,439
1506650701741,438
1506650701749,443
1506650701757,442
1506650701765,447
1506650701774,452
1506650701782,453
1506650701791,460
1506650701799,461
1506650701807,465
1506650701815,468
1506650701823,468
1506650701827,474
1506650701836,472
1506650701844,474
1506650701852,475
1506650701860,474
1506650701868,477
1506650701876,475
1506650701884,475
1506650701893,476
1506650701901,474
1506650701909,475
1506650701917,472
1506650701925,472
1506650701934,470
1506650701941,466
1506650701951,468
1506650701959,463
1506650701967,464
1506650701975,466
1506650701983,468
1506650701991,481
1506650701995,495
1506650702003,519
1506650702012,550
1506650702019,583
1506650702028,624
1506650702036,658
1506650702044,694
1506650702052,725
1506650702060,744
1506650702069,760
1506650702077,763
1506650702085,758
1506650702093,744
1506650702102,720
1506650702110,693
1506650702118,656
1506650702126,620
1506650702134,581
1506650702142,541
1506650702150,509
1506650702155,475
1506650702163,449
1506650702171,428
1506650702179,408
1506650702187,398
1506650702196,386
1506650702204,382
1506650702213,380
1506650702220,380
1506650702229,388
1506650702237,393
1506650702245,405
1506650702253,419
1506650702261,431
1506650702269,450
1506650702278,463
1506650702286,479
1506650702294,494
1506650702302,503
1506650702310,516
1506650702315,521
1506650702323,527
1506650702331,530
1506650702339,528
1506650702347,528
1506650702355,521
1506650702363,515
1506650702371,509
1506650702380,498
1506650702388,492
1506650702396,480
1506650702405,472
1506650702413,464
1506650702421,455
1506650702429,452
1506650702437,444
1506650702446,441
1506650702454,439
1506650702462,434
1506650702470,436
1506650702474,434
1506650702482,435
1506650702491,438
1506650702499,438
1506650702507,444
1506650702516,444
1506650702524,449
1506650702532,453
1506650702540,455
1506650702548,462
1506650702556,463
1506650702564,466
1506650702573,471
1506650702581,471
1506650702589,475
1506650702597,474
1506650702605,476
1506650702614,478
1506650702621,475
1506650702629,477
1506650702634,474
1506650702643,474
1506650702651,474
1506650702659,470
1506650702667,475
1506650702675,478
1506650702684,488
1506650702692,506
1506650702700,525
1506650702708,556
1506650702715,587
1506650702724,622
1506650702733,657
1506650702741,685
1506650702749,713
1506650702757,729
1506650702765,739
1506650702773,742
1506650702782,732
1506650702789,718
1506650702794,695
1506650702802,667
1506650702810,636
1506650702818,599
1506650702827,566
1506650702835,528
1506650702843,496
1506650702851,467
1506650702859,438
1506650702868,419
1506650702876,399
1506650702884,386
1506650702892,379
1506650702900,371
1506650702908,372
1506650702916,373
1506650702924,381
1506650702933,392
1506650702941,401
1506650702949,419
1506650702953,433
1506650702961,450
1506650702969,470
1506650702978,482
1506650702986,500
1506650702994,510
1506650703003,520
1506650703011,528
1506650703019,531
1506650703027,535
1506650703035,532
1506650703043,529
1506650703052,524
1506650703060,514
1506650703068,508
1506650703076,497
1506650703084,486
1506650703092,477
1506650703101,465
1506650703109,459
1506650703114,449
1506650703121,445
1506650703130,439
1506650703138,434
1506650703146,435
1506650703154,431
1506650703162,431
1506650703171,434
1506650703179,433
1506650703187,440
1506650703195,442
1506650703203,445
1506650703211,451
1506650703219,452
1506650703228,459
1506650703236,461
1506650703244,464
1506650703252,470
1506650703260,468
1506650703269,473
1506650703273,472
1506650703281,473
1506650703289,476
1506650703297,474
1506650703306,478
1506650703314,478
1506650703322,485
1506650703330,498
1506650703339,511
1506650703347,538
1506650703355,564
1506650703363,595
1506650703371,631
1506650703380,660
1506650703388,690
1506650703396,710
1506650703404,723
1506650703412,731
1506650703420,725
1506650703428,718
1506650703433,699
1506650703440,673
1506650703448,646
1506650703458,611
1506650703466,579
1506650703474,542
1506650703482,509
1506650703490,480
1506650703498,449
1506650703507,427
1506650703515,405
1506650703522,388
1506650703531,379
1506650703539,369
1506650703547,368
1506650703555,371
1506650703563,376
1506650703572,386
1506650703580,396
1506650703588,414
1506650703592,430
1506650703600,448
1506650703609,468
1506650703617,483
1506650703625,502
1506650703634,515
1506650703642,527
1506650703650,538
1506650703658,540
1506650703666,545
1506650703674,543
1506650703683,540
1506650703691,535
1506650703699,524
1506650703707,518
1506650703715,506
1506650703723,494
1506650703733,485
1506650703740,473
1506650703748,466
1506650703752,456
1506650703761,449
1506650703769,445
1506650703777,438
1506650703785,439
1506650703794,436
1506650703801,435
1506650703810,439
1506650703817,437
1506650703826,443
1506650703834,446
1506650703842,448
1506650703850,453
1506650703858,455
1506650703866,461
1506650703875,463
1506650703883,465
1506650703892,469
1506650703900,468
1506650703908,474
1506650703912,475
1506650703920,481
1506650703928,496
1506650703936,509
1506650703944,535
1506650703953,564
1506650703960,597
1506650703970,634
1506650703978,665
1506650703986,699
1506650703994,722
1506650704002,738
1506650704010,750
1506650704018,747
1506650704026,740
1506650704034,721
1506650704043,696
1506650704051,668
1506650704059,631
1506650704067,597
1506650704073,559
1506650704080,523
1506650704088,493
1506650704096,460
1506650704104,438
1506650704113,416
1506650704121,397
1506650704129,387
1506650704137,376
1506650704145,375
1506650704154,375
1506650704162,380
1506650704169,390
1506650704178,401
1506650704186,418
1506650704194,433
1506650704202,450
1506650704210,471
1506650704218,485
1506650704227,504
1506650704231,516
1506650704239,527
1506650704247,539
1506650704255,542
1506650704264,547
1506650704272,546
1506650704280,541
1506650704288,538
1506650704296,527
1506650704305,521
1506650704313,510
1506650704321,498
1506650704330,491
1506650704338,477
1506650704346,470
1506650704354,459
1506650704362,452
1506650704370,449
1506650704379,441
1506650704387,440
1506650704395,437
1506650704399,434
1506650704407,439
1506650704415,437
1506650704423,442
1506650704432,445
1506650704439,448
1506650704448,454
1506650704456,455
1506650704464,462
1506650704472,464
1506650704480,466
1506650704489,472
1506650704497,473
1506650704505,481
1506650704514,489
1506650704522,503
1506650704530,527
1506650704538,552
1506650704546,587
1506650704554,623
1506650704559,659
1506650704567,695
1506650704575,722
1506650704583,747
1506650704592,761
1506650704600,765
1506650704608,765
1506650704616,749
1506650704624,729
1506650704633,703
1506650704641,668
1506650704649,634
1506650704657,594
1506650704665,558
1506650704673,521
1506650704682,486
1506650704690,459
1506650704698,432
1506650704706,413
1506650704714,397
1506650704719,384
1506650704727,380
1506650704736,375
1506650704743,378
1506650704752,383
1506650704759,391
1506650704768,405
1506650704776,416
1506650704784,434
1506650704793,449
1506650704801,465
1506650704809,484
1506650704818,496
1506650704825,511
1506650704834,522
1506650704842,529
1506650704850,537
1506650704858,537
1506650704866,539
1506650704874,535
1506650704878,529
1506650704886,525
1506650704895,514
1506650704903,508
1506650704911,498
1506650704919,487
1506650704927,480
1506650704936,468
1506650704944,461
1506650704952,455
1506650704960,448
1506650704968,446
1506650704977,440
1506650704986,441
1506650704994,441
1506650705002,439
1506650705010,445
1506650705018,445
1506650705026,450
1506650705034,454
1506650705039,455
1506650705047,460
1506650705055,461
1506650705063,466
1506650705071,468
1506650705079,469
1506650705087,476
1506650705095,479
1506650705104,492
1506650705112,507
1506650705120,528
1506650705129,560
1506650705137,592
1506650705145,630
1506650705153,667
1506650705161,700
1506650705170,734
1506650705179,754
1506650705186,769
1506650705194,774
1506650705198,766
1506650705206,754
1506650705215,728
1506650705223,699
1506650705231,665
1506650705239,624
1506650705247,589
1506650705255,549
1506650705263,515
1506650705272,483
1506650705280,454
1506650705288,434
1506650705296,413
1506650705305,402
1506650705313,391
1506650705320,383
1506650705329,384
1506650705337,383
1506650705345,390
1506650705354,399
1506650705357,408
1506650705365,423
1506650705374,435
1506650705382,453
1506650705390,467
1506650705398,479
1506650705407,495
1506650705415,503
1506650705422,514
1506650705431,521
1506650705439,524
1506650705447,530
1506650705455,527
1506650705463,526
1506650705472,522
1506650705480,514
1506650705488,509
1506650705496,497
1506650705505,490
1506650705513,481
1506650705517,470
1506650705525,465
1506650705534,455
1506650705542,450
1506650705550,446
1506650705558,440
1506650705567,441
1506650705575,437
1506650705583,439
1506650705591,441
1506650705599,440
1506650705608,447
1506650705616,447
1506650705624,452
1506650705632,458
1506650705640,459
1506650705648,466
1506650705656,467
1506650705664,471
1506650705673,473
1506650705677,473
1506650705685,477
1506650705693,477
1506650705701,482
1506650705710,490
1506650705718,501
1506650705726,523
1506650705734,547
1506650705742,582
1506650705751,619
1506650705759,656
1506650705768,695
1506650705776,725
1506650705784,753
1506650705793,770
1506650705800,775
1506650705808,776
1506650705816,761
1506650705825,742
1506650705833,717
1506650705837,685
1506650705845,652
1506650705853,609
1506650705862,570
1506650705870,533
1506650705878,499
1506650705886,474
1506650705894,447
1506650705902,430
1506650705911,417
1506650705919,404
1506650705927,400
1506650705935,395
1506650705943,395
1506650705952,398
1506650705960,402
1506650705968,414
1506650705976,422
1506650705984,435
1506650705992,449
1506650705996,460
1506650706005,475
1506650706013,485
1506650706021,497
1506650706030,506
1506650706038,511
1506650706046,519
1506650706054,521
1506650706062,524
1506650706070,524
1506650706079,519
1506650706087,518
1506650706095,510
1506650706103,503
1506650706112,497
1506650706119,486
1506650706127,481
1506650706136,470
1506650706144,464
1506650706152,460
1506650706157,452
1506650706165,452
1506650706173,446
1506650706181,445
1506650706189,445
1506650706197,442
1506650706205,447
1506650706214,445
1506650706222,447
1506650706230,452
1506650706238,452
1506650706246,460
1506650706254,462
1506650706263,467
1506650706271,472
1506650706279,474
1506650706287,481
1506650706296,481
1506650706304,483
1506650706312,485
1506650706316,483
1506650706324,486
1506650706333,483
1506650706341,485
1506650706349,488
1506650706357,493
1506650706365,507
1506650706374,523
1506650706381,551
1506650706390,584
1506650706398,617
1506650706407,658
1506650706415,691
1506650706423,723
1506650706431,751
1506650706439,766
1506650706447,776
1506650706456,771
1506650706464,758
1506650706472,737
1506650706476,706
1506650706484,676
1506650706493,637
1506650706501,600
1506650706509,566
1506650706517,529
1506650706525,502
1506650706533,473
1506650706541,451
1506650706549,435
1506650706557,419
1506650706565,412
1506650706574,404
1506650706582,402
1506650706590,403
1506650706598,402
1506650706607,412
1506650706616,416
1506650706623,424
1506650706631,437
1506650706636,445
1506650706644,461
1506650706651,471
1506650706661,482
1506650706669,494
1506650706677,500
1506650706685,511
1506650706693,514
1506650706701,518
1506650706709,520
1506650706717,516
1506650706725,516
1506650706734,510
1506650706742,503
1506650706750,498
1506650706758,489
1506650706766,483
1506650706774,473
1506650706782,466
1506650706791,462
1506650706795,453
1506650706805,453
1506650706812,447
1506650706820,444
1506650706828,443
1506650706836,440
1506650706844,441
1506650706852,441
1506650706861,442
1506650706869,446
1506650706877,446
1506650706886,453
1506650706894,454
1506650706902,459
1506650706910,465
1506650706918,465
1506650706926,470
1506650706934,470
1506650706942,473
1506650706950,478
1506650706959,476
1506650706963,480
1506650706971,479
1506650706981,481
1506650706989,482
1506650706996,479
1506650707005,481
1506650707013,478
1506650707021,477
1506650707029,477
1506650707037,472
1506650707045,473
1506650707054,471
1506650707062,474
1506650707070,483
1506650707078,493
1506650707086,517
1506650707094,544
1506650707103,578
1506650707111,619
1506650707119,655
1506650707123,696
1506650707131,726
1506650707139,752
1506650707148,770
1506650707156,774
1506650707165,772
1506650707173,756
1506650707180,732
1506650707189,704
1506650707197,670
1506650707206,634
1506650707214,595
1506650707221,559
1506650707229,527
1506650707237,493
1506650707245,470
1506650707254,445
1506650707262,428
1506650707270,417
1506650707278,405
1506650707282,402
1506650707290,397
1506650707299,396
1506650707307,400
1506650707315,403
1506650707324,412
1506650707333,420
1506650707340,431
1506650707349,446
1506650707358,457
1506650707365,472
1506650707373,482
1506650707382,492
1506650707390,503
1506650707398,507
1506650707406,514
1506650707414,516
1506650707422,516
1506650707430,517
1506650707438,511
1506650707442,510
1506650707450,503
1506650707459,496
1506650707467,492
1506650707475,482
1506650707483,478
1506650707492,471
1506650707500,465
1506650707508,462
1506650707517,454
1506650707525,455
1506650707532,450
1506650707541,449
1506650707549,449
1506650707557,446
1506650707565,450
1506650707573,450
1506650707582,451
1506650707590,456
1506650707597,455
1506650707602,462
1506650707610,464
1506650707619,466
1506650707627,471
1506650707635,471
1506650707643,474
1506650707651,474
1506650707660,475
1506650707668,478
1506650707676,475
1506650707684,479
1506650707692,478
1506650707700,477
1506650707709,480
1506650707717,476
1506650707726,478
1506650707734,476
1506650707742,473
1506650707750,475
1506650707758,469
1506650707762,469
1506650707770,466
1506650707779,463
1506650707786,465
1506650707795,462
1506650707803,467
1506650707811,474
1506650707819,487
1506650707827,511
1506650707836,536
1506650707844,573
1506650707852,609
1506650707860,646
1506650707869,686
1506650707878,714
1506650707886,742
1506650707893,758
1506650707901,764
1506650707909,762
1506650707918,745
1506650707921,726
1506650707930,696
1506650707939,661
1506650707947,627
1506650707955,587
1506650707963,554
1506650707971,520
1506650707979,489
1506650707988,465
1506650707996,441
1506650708004,425
1506650708012,411
1506650708020,401
1506650708028,397
1506650708036,391
1506650708044,395
1506650708052,396
1506650708061,402
1506650708069,414
1506650708077,422
1506650708081,437
1506650708089,449
1506650708097,461
1506650708106,477
1506650708114,486
1506650708122,499
1506650708130,507
1506650708138,514
1506650708147,521
1506650708155,520
1506650708163,523
1506650708171,522
1506650708179,516
1506650708187,514
1506650708196,504
1506650708204,498
1506650708213,490
1506650708220,480
1506650708229,475
1506650708237,464
1506650708241,459
1506650708249,453
1506650708258,446
1506650708266,446
1506650708274,441
1506650708282,441
1506650708290,440
1506650708298,440
1506650708307,443
1506650708315,443
1506650708323,448
1506650708332,450
1506650708339,452
1506650708348,458
1506650708356,458
1506650708364,464
1506650708372,467
1506650708381,468
1506650708388,474
1506650708396,473
1506650708401,478
1506650708409,478
1506650708417,479
1506650708425,482
1506650708433,479
1506650708442,481
1506650708450,480
1506650708459,477
1506650708467,480
1506650708475,476
1506650708483,477
1506650708491,475
1506650708500,472
1506650708508,472
1506650708516,468
1506650708523,471
1506650708532,472
1506650708540,478
1506650708548,495
1506650708556,513
1506650708560,549
1506650708568,580
1506650708577,613
1506650708585,651
1506650708593,681
1506650708601,713
1506650708610,733
1506650708618,745
1506650708625,751
1506650708633,742
1506650708642,728
1506650708650,706
1506650708658,676
1506650708666,647
1506650708675,609
1506650708683,576
1506650708692,542
1506650708700,507
1506650708708,480
1506650708716,452
1506650708720,433
1506650708728,416
1506650708736,401
1506650708745,395
1506650708753,385
1506650708761,386
1506650708769,388
1506650708777,393
1506650708785,404
1506650708794,413
1506650708802,426
1506650708810,438
1506650708819,453
1506650708827,470
1506650708835,480
1506650708843,494
1506650708851,505
1506650708859,512
1506650708868,522
1506650708876,523
1506650708880,527
1506650708888,525
1506650708896,520
1506650708904,517
1506650708913,507
1506650708921,501
1506650708928,496
1506650708937,486
1506650708945,477
1506650708953,464
1506650708961,458
1506650708970,452
1506650708978,444
1506650708987,443
1506650708995,437
1506650709003,437
1506650709011,441
1506650709020,439
1506650709027,443
1506650709035,442
1506650709039,449
1506650709048,454
1506650709056,456
1506650709064,462
1506650709072,462
1506650709080,468
1506650709088,471
1506650709097,467
1506650709105,470
1506650709114,470
1506650709122,473
1506650709130,475
1506650709138,475
1506650709146,480
1506650709154,477
1506650709162,479
1506650709171,479
1506650709178,476
1506650709187,479
1506650709195,475
1506650709199,475
1506650709207,473
1506650709216,470
1506650709223,472
1506650709232,473
1506650709241,477
1506650709249,482
1506650709257,492
1506650709265,515
1506650709273,538
1506650709281,571
1506650709289,605
1506650709298,637
1506650709306,673
1506650709314,697
1506650709322,719
1506650709331,735
1506650709339,736
1506650709347,736
1506650709355,720
1506650709363,703
1506650709367,679
1506650709376,645
1506650709384,617
1506650709392,580
1506650709400,546
1506650709409,515
1506650709417,483
1506650709425,458
1506650709433,433
1506650709441,415
1506650709449,403
1506650709457,388
1506650709466,386
1506650709474,378
1506650709482,382
1506650709490,387
1506650709498,392
1506650709506,407
1506650709515,417
1506650709523,433
1506650709528,449
1506650709535,463
1506650709544,480
1506650709552,491
1506650709560,506
1506650709568,518
1506650709576,524
1506650709584,532
1506650709593,531
1506650709601,535
1506650709609,532
1506650709617,525
1506650709626,521
1506650709634,508
1506650709642,501
1506650709650,492
1506650709658,479
1506650709666,473
1506650709674,460
1506650709682,453
1506650709687,449
1506650709696,439
1506650709703,437
1506650709712,432
1506650709721,431
1506650709728,430
1506650709736,430
1506650709744,434
1506650709753,436
1506650709760,440
1506650709769,444
1506650709777,446
1506650709785,454
1506650709793,457
1506650709801,462
1506650709810,467
1506650709818,468
1506650709826,473
1506650709834,474
1506650709842,478
1506650709847,481
1506650709855,479
1506650709863,485
1506650709871,481
1506650709880,480
1506650709888,482
1506650709896,479
1506650709904,488
1506650709913,494
1506650709920,511
1506650709928,532
1506650709937,556
1506650709944,589
1506650709953,618
1506650709961,650
1506650709969,679
1506650709977,701
1506650709986,720
1506650709994,729
1506650710002,726
1506650710006,714
1506650710015,694
1506650710023,672
1506650710032,641
1506650710039,612
1506650710048,578
1506650710057,544
1506650710064,517
1506650710073,481
1506650710080,452
1506650710088,430
1506650710096,407
1506650710104,395
1506650710113,379
1506650710121,373
1506650710129,370
1506650710137,368
1506650710145,375
1506650710153,382
1506650710161,395
1506650710165,411
1506650710174,426
1506650710182,446
1506650710190,463
1506650710198,481
1506650710208,499
1506650710216,511
1506650710224,526
1506650710232,534
1506650710239,542
1506650710248,549
1506650710256,547
1506650710264,544
1506650710272,536
1506650710280,532
1506650710289,521
1506650710298,507
1506650710306,502
1506650710314,484
1506650710322,474
1506650710326,464
1506650710334,451
1506650710342,445
1506650710350,437
1506650710358,433
1506650710367,430
1506650710375,425
1506650710383,428
1506650710391,427
1506650710399,429
1506650710407,434
1506650710417,435
1506650710424,442
1506650710432,443
1506650710440,449
1506650710449,454
1506650710457,456
1506650710465,465
1506650710473,469
1506650710481,468
1506650710485,472
1506650710494,470
1506650710502,475
1506650710510,478
1506650710518,488
1506650710526,503
1506650710534,521
1506650710542,551
1506650710550,580
1506650710559,614
1506650710567,649
1506650710575,677
1506650710584,705
1506650710592,722
1506650710600,732
1506650710608,736
1506650710617,725
1506650710624,712
1506650710633,687
1506650710641,659
1506650710645,628
1506650710653,590
1506650710661,559
1506650710670,522
1506650710678,490
1506650710686,462
1506650710694,434
1506650710702,414
1506650710711,395
1506650710719,381
1506650710727,373
1506650710735,365
1506650710743,369
1506650710752,371
1506650710760,380
1506650710769,393
1506650710777,405
1506650710785,425
1506650710793,442
1506650710801,461
1506650710805,480
1506650710814,496
1506650710822,514
1506650710830,525
1506650710838,536
1506650710846,546
1506650710854,547
1506650710862,551
1506650710871,546
1506650710879,542
1506650710887,536
1506650710895,525
1506650710903,518
1506650710912,505
1506650710920,494
1506650710929,485
1506650710936,472
1506650710944,465
1506650710953,456
1506650710960,449
1506650710965,447
1506650710973,439
1506650710981,439
1506650710989,436
1506650710997,436
1506650711005,439
1506650711014,439
1506650711023,444
1506650711031,445
1506650711039,448
1506650711047,454
1506650711055,455
1506650711063,461
1506650711072,462
1506650711080,464
1506650711088,470
1506650711096,473
1506650711104,485
1506650711113,497
1506650711121,517
1506650711125,546
1506650711132,575
1506650711141,614
1506650711149,650
1506650711157,685
1506650711165,717
1506650711174,739
1506650711181,756
1506650711190,760
1506650711198,755
1506650711206,744
1506650711215,722
1506650711223,697
1506650711231,663
1506650711240,627
1506650711248,593
1506650711256,554
1506650711264,521
1506650711272,487
1506650711280,458
1506650711284,437
1506650711292,415
1506650711300,402
1506650711309,390
1506650711317,383
1506650711326,384
1506650711333,385
1506650711341,396
1506650711349,404
1506650711358,417
1506650711366,435
1506650711374,448
1506650711382,468
1506650711390,479
1506650711399,492
1506650711407,508
1506650711416,516
1506650711424,529
1506650711432,536
1506650711440,540
1506650711448,544
1506650711453,540
1506650711461,539
1506650711469,531
1506650711477,523
1506650711485,516
1506650711494,504
1506650711502,496
1506650711510,483
1506650711518,474
1506650711526,466
1506650711534,455
1506650711542,451
1506650711550,444
1506650711559,440
1506650711567,440
1506650711575,437
1506650711583,440
1506650711592,440
1506650711600,443
1506650711608,447
1506650711613,447
1506650711620,454
1506650711629,456
1506650711637,458
1506650711645,464
1506650711653,465
1506650711661,472
1506650711670,476
1506650711678,485
1506650711686,500
1506650711694,516
1506650711702,545
1506650711710,576
1506650711718,610
1506650711727,651
1506650711735,682
1506650711743,716
1506650711751,741
1506650711759,758
1506650711767,769
1506650711771,765
1506650711779,758
1506650711787,738
1506650711796,713
1506650711805,685
1506650711813,649
1506650711821,615
1506650711829,578
1506650711837,542
1506650711845,512
1506650711854,480
1506650711862,458
1506650711870,437
1506650711878,420
1506650711886,409
1506650711895,397
1506650711903,396
1506650711911,393
1506650711919,396
1506650711927,406
1506650711931,412
1506650711939,426
1506650711948,439
1506650711956,452
1506650711964,469
1506650711972,481
1506650711980,497
1506650711989,508
1506650711997,517
1506650712005,527
1506650712014,528
1506650712022,534
1506650712029,533
1506650712038,528
1506650712046,527
1506650712054,518
1506650712062,513
1506650712070,505
1506650712079,495
1506650712086,488
1506650712091,476
1506650712099,471
1506650712107,463
1506650712116,455
1506650712124,453
1506650712132,446
1506650712140,445
1506650712148,444
1506650712156,443
1506650712164,447
1506650712173,446
1506650712181,451
1506650712189,452
1506650712198,454
1506650712206,461
1506650712215,461
1506650712223,467
1506650712230,470
1506650712238,473
1506650712246,480
1506650712251,483
1506650712259,494
1506650712267,511
1506650712275,535
1506650712283,567
1506650712292,593
1506650712300,631
1506650712309,663
1506650712317,693
1506650712325,724
1506650712332,743
1506650712341,757
1506650712350,762
1506650712358,756
1506650712366,746
1506650712374,723
1506650712382,699
1506650712391,667
1506650712399,631
1506650712407,598
1506650712411,560
1506650712419,529
1506650712427,499
1506650712435,471
1506650712443,451
1506650712452,431
1506650712460,420
1506650712468,410
1506650712476,403
1506650712484,402
1506650712492,400
1506650712500,407
1506650712508,413
1506650712517,420
1506650712525,435
1506650712534,445
1506650712542,460
1506650712550,473
1506650712558,485
1506650712566,500
1506650712572,507
1506650712579,517
1506650712587,522
1506650712594,525
1506650712603,529
1506650712611,524
1506650712620,523
1506650712628,518
1506650712636,510
1506650712644,506
1506650712652,495
1506650712660,488
1506650712668,479
1506650712677,470
1506650712685,466
1506650712693,457
1506650712701,454
1506650712709,449
1506650712718,445
1506650712726,446
1506650712730,443
1506650712738,445
1506650712747,447
1506650712755,448
1506650712763,454
1506650712772,455
1506650712779,461
1506650712787,464
1506650712795,466
1506650712804,473
1506650712813,470
1506650712820,475
1506650712828,476
1506650712836,475
1506650712845,480
1506650712853,479
1506650712861,487
1506650712869,498
1506650712877,513
1506650712885,541
1506650712890,567
1506650712898,605
1506650712906,641
1506650712915,675
1506650712923,710
1506650712930,733
1506650712939,753
1506650712947,765
1506650712955,763
1506650712963,755
1506650712972,735
1506650712980,711
1506650712988,681
1506650712996,645
1506650713004,611
1506650713013,573
1506650713021,541
1506650713029,510
1506650713037,481
1506650713045,461
1506650713050,440
1506650713058,427
1506650713066,416
1506650713074,408
1506650713082,406
1506650713090,401
1506650713098,406
1506650713107,410
1506650713116,416
1506650713123,428
1506650713132,436
1506650713140,449
1506650713148,463
1506650713156,474
1506650713164,488
1506650713173,497
1506650713181,508
1506650713189,516
1506650713197,520
1506650713205,527
1506650713209,525
1506650713217,525
1506650713226,523
1506650713233,516
1506650713242,512
1506650713250,502
1506650713258,496
1506650713266,488
1506650713275,479
1506650713284,474
1506650713292,465
1506650713300,461
1506650713308,456
1506650713316,450
1506650713324,450
1506650713332,445
1506650713340,446
1506650713348,446
1506650713356,447
1506650713364,451
1506650713369,451
1506650713377,456
1506650713385,460
1506650713393,461
1506650713401,468
1506650713410,468
1506650713418,473
1506650713427,477
1506650713435,478
1506650713443,482
1506650713451,481
1506650713460,484
1506650713467,483
1506650713476,480
1506650713484,482
1506650713492,478
1506650713500,478
1506650713508,480
1506650713517,482
1506650713525,496
1506650713533,510
1506650713537,535
1506650713545,568
1506650713554,601
1506650713562,643
1506650713570,678
1506650713578,714
1506650713586,743
1506650713594,762
1506650713602,776
1506650713611,773
1506650713619,765
1506650713627,747
1506650713636,719
1506650713644,691
1506650713652,653
1506650713661,617
1506650713668,582
1506650713676,546
1506650713684,516
1506650713692,485
1506650713697,463
1506650713705,445
1506650713713,428
1506650713721,420
1506650713730,411
1506650713738,408
1506650713746,409
1506650713754,407
1506650713762,415
1506650713771,420
1506650713780,430
1506650713787,442
1506650713795,451
1506650713803,467
1506650713812,477
1506650713820,490
1506650713829,502
1506650713837,509
1506650713844,518
1506650713852,521
1506650713856,524
1506650713865,526
1506650713873,522
1506650713881,521
1506650713889,513
1506650713897,507
1506650713905,500
1506650713914,490
1506650713922,485
1506650713930,475
1506650713938,468
1506650713946,463
1506650713954,455
1506650713962,453
1506650713971,447
1506650713979,445
1506650713988,444
1506650713996,441
1506650714004,444
1506650714012,444
1506650714017,446
1506650714025,449
1506650714033,449
1506650714041,456
1506650714049,458
1506650714057,462
1506650714065,466
1506650714074,468
1506650714082,474
1506650714090,474
1506650714098,478
1506650714107,480
1506650714115,479
1506650714123,483
1506650714131,482
1506650714139,483
1506650714148,484
1506650714156,481
1506650714164,482
1506650714172,479
1506650714176,478
1506650714184,478
1506650714193,475
1506650714201,477
1506650714209,479
1506650714217,489
1506650714225,507
1506650714233,528
1506650714241,562
1506650714249,596
1506650714258,635
1506650714266,676
1506650714274,710
1506650714282,743
1506650714290,763
1506650714298,777
1506650714307,781
1506650714315,770
1506650714323,755
1506650714331,728
1506650714335,697
1506650714343,664
1506650714352,624
1506650714359,591
1506650714367,555
1506650714376,524
1506650714384,497
1506650714392,470
1506650714400,453
1506650714409,436
1506650714418,424
1506650714426,417
1506650714434,409
1506650714442,410
1506650714450,408
1506650714459,412
1506650714467,419
1506650714475,425
1506650714483,438
1506650714491,447
1506650714495,459
1506650714503,473
1506650714512,481
1506650714520,496
1506650714528,502
1506650714536,511
1506650714544,519
1506650714553,520
1506650714561,524
1506650714569,523
1506650714577,521
1506650714585,518
1506650714594,509
1506650714602,506
1506650714610,496
1506650714618,487
1506650714626,480
1506650714634,470
1506650714642,466
1506650714650,456
1506650714654,451
1506650714662,449
1506650714671,442
1506650714679,441
1506650714688,438
1506650714696,437
1506650714704,439
1506650714713,438
1506650714721,444
1506650714729,445
1506650714737,448
1506650714745,453
1506650714753,455
1506650714761,461
1506650714770,463
1506650714778,466
1506650714786,472
1506650714794,473
1506650714802,478
1506650714810,477
1506650714815,479
1506650714823,481
1506650714831,479
1506650714839,483
1506650714847,480
1506650714855,480
1506650714864,481
1506650714872,476
1506650714880,476
1506650714888,473
1506650714896,471
1506650714904,472
1506650714913,473
1506650714921,485
1506650714930,498
1506650714937,522
1506650714945,554
1506650714954,587
1506650714963,628
1506650714971,666
1506650714975,703
1506650714983,736
1506650714991,758
1506650714999,775
1506650715008,777
1506650715016,769
1506650715024,755
1506650715032,727
1506650715039,699
1506650715049,662
1506650715056,625
1506650715064,590
1506650715072,551
1506650715081,521
1506650715090,490
1506650715098,465
1506650715106,447
1506650715114,429
1506650715122,419
1506650715130,409
1506650715134,403
1506650715142,403
1506650715150,401
1506650715158,407
1506650715166,411
1506650715175,418
1506650715183,431
1506650715191,439
1506650715199,454
1506650715208,465
1506650715216,477
1506650715224,489
1506650715233,495
1506650715241,506
1506650715249,510
1506650715257,514
1506650715265,518
1506650715274,516
1506650715282,516
1506650715290,511
1506650715294,505
1506650715302,500
1506650715311,491
1506650715319,485
1506650715327,476
1506650715334,469
1506650715343,463
1506650715351,453
1506650715359,451
1506650715367,444
1506650715375,440
1506650715384,439
1506650715392,434
1506650715400,436
1506650715408,435
1506650715417,437
1506650715425,440
1506650715433,441
1506650715441,447
1506650715449,448
1506650715453,452
1506650715461,458
1506650715469,458
1506650715478,464
1506650715486,466
1506650715494,467
1506650715502,473
1506650715510,471
1506650715519,476
1506650715527,475
1506650715535,474
1506650715543,477
1506650715551,472
1506650715559,474
1506650715568,471
1506650715576,468
1506650715584,469
1506650715592,465
1506650715600,466
1506650715610,469
1506650715617,476
1506650715622,492
1506650715630,510
1506650715638,540
1506650715647,573
1506650715655,609
1506650715662,649
1506650715671,682
1506650715679,716
1506650715687,740
1506650715695,755
1506650715703,762
1506650715712,754
1506650715720,741
1506650715728,717
1506650715736,686
1506650715744,655
1506650715753,615
1506650715761,580
1506650715769,544
1506650715777,510
1506650715781,483
1506650715789,454
1506650715798,436
1506650715806,419
1506650715814,406
1506650715822,399
1506650715831,391
1506650715838,392
1506650715847,392
1506650715855,395
1506650715863,404
1506650715872,409
1506650715879,422
1506650715888,434
1506650715896,444
1506650715904,459
1506650715912,469
1506650715921,484
1506650715929,494
1506650715936,502
1506650715941,512
1506650715949,513
1506650715957,519
1506650715965,518
1506650715974,515
1506650715982,514
1506650715991,505
1506650715999,500
1506650716007,492
1506650716015,483
1506650716023,477
1506650716031,466
1506650716040,459
1506650716048,450
1506650716056,442
1506650716064,440
1506650716073,431
1506650716081,431
1506650716088,428
1506650716097,426
1506650716101,430
1506650716109,429
1506650716118,433
1506650716125,436
1506650716133,437
1506650716141,444
1506650716150,445
1506650716158,451
1506650716166,454
1506650716174,456
1506650716183,464
1506650716191,464
1506650716199,469
1506650716207,471
1506650716215,471
1506650716224,475
1506650716232,472
1506650716240,474
1506650716248,473
1506650716256,470
1506650716261,471
1506650716269,467
1506650716277,468
1506650716285,468
1506650716294,470
1506650716302,481
1506650716310,492
1506650716318,514
1506650716327,542
1506650716334,573
1506650716342,611
1506650716351,644
1506650716359,679
1506650716367,708
1506650716375,729
1506650716383,747
1506650716391,748
1506650716399,744
1506650716407,730
1506650716415,706
1506650716420,679
1506650716429,643
1506650716437,609
1506650716445,572
1506650716453,534
1506650716461,503
1506650716469,470
1506650716477,446
1506650716485,424
1506650716494,406
1506650716503,396
1506650716511,385
1506650716519,381
1506650716528,380
1506650716536,381
1506650716544,388
1506650716552,393
1506650716560,406
1506650716568,418
1506650716576,430
1506650716580,448
1506650716589,459
1506650716597,475
1506650716605,488
1506650716614,498
1506650716621,511
1506650716629,516
1506650716637,522
1506650716645,524
1506650716653,522
1506650716662,522
1506650716670,514
1506650716678,510
1506650716686,502
1506650716695,492
1506650716703,485
1506650716713,474
1506650716719,466
1506650716728,457
1506650716736,449
1506650716740,446
1506650716748,436
1506650716756,434
1506650716765,431
1506650716773,427
1506650716781,431
1506650716789,428
1506650716797,431
1506650716805,434
1506650716814,435
1506650716822,441
1506650716830,443
1506650716838,448
1506650716846,452
1506650716854,454
1506650716863,461
1506650716871,462
1506650716879,466
1506650716889,469
1506650716896,469
1506650716900,474
1506650716908,471
1506650716916,474
1506650716924,474
1506650716932,472
1506650716941,474
1506650716949,469
1506650716957,470
1506650716965,469
1506650716973,468
1506650716981,476
1506650716989,483
1506650716997,502
1506650717006,525
1506650717015,553
1506650717023,589
1506650717030,622
1506650717039,658
1506650717047,689
1506650717055,712
1506650717059,734
1506650717067,741
1506650717075,744
1506650717084,736
1506650717092,717
1506650717100,695
1506650717108,662
1506650717116,628
1506650717125,591
1506650717132,552
1506650717142,520
1506650717150,484
1506650717158,455
1506650717166,431
1506650717174,408
1506650717182,396
1506650717190,381
1506650717199,374
1506650717207,372
1506650717215,371
1506650717219,378
1506650717227,384
1506650717235,398
1506650717243,412
1506650717252,425
1506650717260,444
1506650717268,458
1506650717276,476
1506650717284,491
1506650717293,502
1506650717301,515
1506650717309,520
1506650717317,527
1506650717326,531
1506650717334,530
1506650717342,531
1506650717350,524
1506650717358,519
1506650717366,511
1506650717374,498
1506650717379,492
1506650717387,478
1506650717395,467
1506650717403,459
1506650717411,448
1506650717420,443
1506650717428,434
1506650717436,430
1506650717444,427
1506650717452,423
1506650717461,426
1506650717469,422
1506650717477,425
1506650717485,428
1506650717493,429
1506650717501,436
1506650717509,438
1506650717518,444
1506650717526,449
1506650717534,452
1506650717538,459
1506650717546,461
1506650717555,465
1506650717563,469
1506650717571,468
1506650717579,472
1506650717587,470
1506650717596,472
1506650717604,473
1506650717612,470
1506650717621,473
1506650717629,472
1506650717637,478
1506650717645,488
1506650717654,501
1506650717661,525
1506650717669,550
1506650717678,583
1506650717686,619
1506650717694,650
1506650717698,685
1506650717706,709
1506650717714,728
1506650717723,741
1506650717731,740
1506650717739,735
1506650717747,718
1506650717756,696
1506650717764,668
1506650717772,630
1506650717780,598
1506650717788,559
1506650717797,523
1506650717805,490
1506650717813,457
1506650717822,434
1506650717830,409
1506650717837,392
1506650717845,379
1506650717854,367
1506650717858,367
1506650717866,364
1506650717874,369
1506650717882,378
1506650717891,387
1506650717899,404
1506650717907,418
1506650717915,437
1506650717924,457
1506650717932,472
1506650717940,492
1506650717948,504
1506650717956,518
1506650717964,528
1506650717973,531
1506650717980,539
1506650717989,537
1506650717997,533
1506650718005,531
1506650718013,521
1506650718022,515
1506650718026,503
1506650718034,493
1506650718042,483
1506650718050,469
1506650718058,462
1506650718066,450
1506650718075,442
1506650718083,436
1506650718091,428
1506650718099,428
1506650718107,423
1506650718116,423
1506650718124,425
1506650718133,424
1506650718140,431
1506650718148,432
1506650718157,437
1506650718165,443
1506650718173,445
1506650718181,453
1506650718185,455
1506650718193,459
1506650718201,465
1506650718209,465
1506650718218,470
1506650718226,470
1506650718234,472
1506650718243,475
1506650718251,477
1506650718259,488
1506650718267,499
1506650718276,518
1506650718284,547
1506650718292,573
1506650718300,609
1506650718308,641
1506650718316,673
1506650718325,702
1506650718333,720
1506650718340,735
1506650718345,737
1506650718354,731
1506650718362,719
1506650718370,697
1506650718378,672
1506650718387,638
1506650718395,602
1506650718403,567
1506650718411,527
1506650718419,495
1506650718427,461
1506650718435,432
1506650718443,409
1506650718453,386
1506650718460,374
1506650718469,361
1506650718477,355
1506650718485,355
1506650718493,356
1506650718501,368
1506650718506,379
1506650718514,397
1506650718522,417
1506650718530,433
1506650718537,456
1506650718546,474
1506650718554,492
1506650718563,511
1506650718571,521
1506650718579,536
1506650718587,541
1506650718595,545
1506650718603,548
1506650718612,543
1506650718620,541
1506650718628,531
1506650718636,522
1506650718645,514
1506650718653,499
1506650718661,491
1506650718665,478
1506650718674,466
1506650718683,459
1506650718690,449
1506650718698,445
1506650718706,438
1506650718715,435
1506650718722,435
1506650718731,431
1506650718739,435
1506650718747,435
1506650718755,437
1506650718763,442
1506650718771,444
1506650718780,451
1506650718788,453
1506650718796,458
1506650718804,464
1506650718813,465
1506650718820,471
1506650718825,474
1506650718833,478
1506650718841,487
1506650718849,497
1506650718858,517
1506650718866,542
1506650718873,572
1506650718883,609
1506650718890,641
1506650718898,679
1506650718907,706
1506650718915,729
1506650718923,747
1506650718931,750
1506650718939,752
1506650718947,739
1506650718956,718
1506650718964,695
1506650718972,661
1506650718980,629
1506650718984,591
1506650718993,554
1506650719001,520
1506650719009,482
1506650719017,454
1506650719026,427
1506650719034,404
1506650719041,389
1506650719049,374
1506650719058,368
1506650719066,365
1506650719074,367
1506650719083,376
1506650719090,385
1506650719098,403
1506650719108,419
1506650719116,438
1506650719124,461
1506650719132,478
1506650719139,499
1506650719144,514
1506650719152,527
1506650719160,541
1506650719168,546
1506650719176,553
1506650719185,553
1506650719193,551
1506650719201,549
1506650719209,538
1506650719217,532
1506650719227,521
1506650719234,509
1506650719242,502
1506650719251,487
1506650719259,479
1506650719267,468
1506650719275,459
1506650719283,455
1506650719292,448
1506650719300,446
1506650719304,443
1506650719312,440
1506650719320,443
1506650719329,441
1506650719337,446
1506650719345,448
1506650719353,450
1506650719361,457
1506650719369,458
1506650719377,464
1506650719386,466
1506650719395,470
1506650719403,478
1506650719410,483
1506650719419,499
1506650719427,517
1506650719435,542
1506650719443,578
1506650719451,610
1506650719459,650
1506650719463,687
1506650719472,719
1506650719479,749
1506650719488,765
1506650719496,778
1506650719504,778
1506650719513,767
1506650719521,751
1506650719529,721
1506650719537,690
1506650719545,653
1506650719553,611
1506650719561,575
1506650719570,534
1506650719578,501
1506650719586,468
1506650719594,441
1506650719603,422
1506650719611,401
1506650719619,391
1506650719623,382
1506650719632,377
1506650719639,381
1506650719648,383
1506650719656,395
1506650719665,408
1506650719673,423
1506650719681,442
1506650719689,458
1506650719697,479
1506650719705,496
1506650719714,510
1506650719722,527
1506650719730,536
1506650719737,546
1506650719747,550
1506650719755,550
1506650719763,553
1506650719771,546
1506650719779,542
1506650719783,533
1506650719791,523
1506650719800,516
1506650719808,503
1506650719816,494
1506650719824,484
1506650719832,472
1506650719840,468
1506650719848,458
1506650719856,455
1506650719864,451
1506650719873,448
1506650719882,449
1506650719889,447
1506650719897,450
1506650719906,452
1506650719914,453
1506650719922,459
1506650719930,458
1506650719938,463
1506650719942,467
1506650719950,468
1506650719959,476
1506650719967,483
1506650719975,498
1506650719984,517
1506650719993,541
1506650720000,577
1506650720008,610
1506650720017,650
1506650720025,688
1506650720033,720
1506650720041,751
1506650720049,767
1506650720058,778
1506650720066,778
1506650720074,765
1506650720082,748
1506650720090,718
1506650720098,686
1506650720102,649
1506650720111,609
1506650720119,574
1506650720127,534
1506650720135,503
1506650720143,474
1506650720152,448
1506650720160,431
1506650720168,413
1506650720176,403
1506650720184,396
1506650720193,391
1506650720201,394
1506650720209,396
1506650720217,405
1506650720225,415
1506650720234,427
1506650720242,445
1506650720250,457
1506650720258,474
1506650720262,490
1506650720270,503
1506650720279,517
1506650720287,525
1506650720295,534
1506650720303,539
1506650720311,540
1506650720319,542
1506650720328,536
1506650720336,533
1506650720344,527
1506650720352,516
1506650720360,511
1506650720369,499
1506650720377,492
1506650720385,483
1506650720393,474
1506650720401,470
1506650720410,462
1506650720418,460
1506650720426,456
1506650720430,451
1506650720438,453
1506650720446,451
1506650720455,454
1506650720463,455
1506650720471,455
1506650720479,460
1506650720488,461
1506650720495,466
1506650720504,469
1506650720512,471
1506650720520,480
1506650720528,482
1506650720537,494
1506650720544,511
1506650720553,532
1506650720561,566
1506650720569,599
1506650720577,639
1506650720585,679
1506650720590,716
1506650720598,751
1506650720606,772
1506650720614,787
1506650720623,791
1506650720631,781
1506650720639,767
1506650720647,738
1506650720656,708
1506650720663,672
1506650720672,632
1506650720680,597
1506650720688,557
1506650720696,526
1506650720704,495
1506650720713,468
1506650720721,450
1506650720729,431
1506650720737,420
1506650720745,412
1506650720750,404
1506650720758,406
1506650720766,405
1506650720775,410
1506650720783,417
1506650720791,424
1506650720799,438
1506650720807,448
1506650720815,463
1506650720823,478
1506650720832,488
1506650720839,504
1506650720847,512
1506650720856,522
1506650720864,530
1506650720873,532
1506650720881,536
1506650720889,533
1506650720897,531
1506650720905,526
1506650720910,517
1506650720918,513
1506650720926,502
1506650720934,494
1506650720942,486
1506650720951,474
1506650720959,470
1506650720967,460
1506650720975,456
1506650720983,453
1506650720991,448
1506650720999,449
1506650721008,446
1506650721016,448
1506650721024,452
1506650721032,453
1506650721040,460
1506650721048,462
1506650721057,466
1506650721065,472
1506650721069,473
1506650721077,479
1506650721085,480
1506650721093,482
1506650721101,484
1506650721109,483
1506650721118,487
1506650721126,485
1506650721135,490
1506650721143,499
1506650721151,509
1506650721159,533
1506650721167,559
1506650721176,595
1506650721184,638
1506650721192,679
1506650721200,724
1506650721208,756
1506650721216,783
1506650721225,800
1506650721229,801
1506650721237,800
1506650721245,784
1506650721254,761
1506650721261,733
1506650721270,697
1506650721278,664
1506650721286,626
1506650721294,590
1506650721302,559
1506650721310,525
1506650721318,502
1506650721327,478
1506650721335,461
1506650721343,449
1506650721351,436
1506650721359,430
1506650721368,422
1506650721376,420
1506650721384,420
1506650721389,420
1506650721397,427
1506650721405,431
1506650721414,441
1506650721422,451
1506650721430,458
1506650721438,472
1506650721446,481
1506650721454,490
1506650721462,502
1506650721471,506
1506650721479,514
1506650721487,515
1506650721495,516
1506650721503,516
1506650721512,510
1506650721519,509
1506650721528,500
1506650721536,494
1506650721544,488
1506650721548,478
1506650721556,473
1506650721565,464
1506650721573,459
1506650721581,455
1506650721589,448
1506650721597,447
1506650721605,443
1506650721613,443
1506650721622,444
1506650721631,442
1506650721638,447
1506650721647,447
1506650721655,451
1506650721663,457
1506650721671,457
1506650721679,463
1506650721688,465
1506650721696,468
1506650721704,473
1506650721708,473
1506650721716,479
1506650721725,478
1506650721733,479
1506650721742,481
1506650721749,479
1506650721758,482
1506650721765,479
1506650721774,479
1506650721782,481
1506650721790,477
1506650721798,480
1506650721807,477
1506650721815,476
1506650721823,477
1506650721831,472
1506650721838,475
1506650721848,472
1506650721855,470
1506650721863,470
1506650721868,466
1506650721875,468
1506650721884,466
1506650721893,469
1506650721901,479
1506650721909,492
1506650721917,520
1506650721925,552
1506650721934,594
1506650721941,645
1506650721949,693
1506650721958,742
1506650721966,779
1506650721974,807
1506650721982,827
1506650721991,831
1506650721999,827
1506650722007,810
1506650722015,784
1506650722023,755
1506650722028,714
1506650722036,678
1506650722044,636
1506650722053,596
1506650722060,561
1506650722069,526
1506650722077,501
1506650722085,475
1506650722094,455
1506650722102,443
1506650722109,429
1506650722117,422
1506650722126,416
1506650722135,411
1506650722143,411
1506650722151,409
1506650722159,416
1506650722167,422
1506650722175,431
1506650722183,441
1506650722191,447
1506650722196,461
1506650722204,470
1506650722212,479
1506650722220,490
1506650722228,493
1506650722236,500
1506650722244,502
1506650722253,502
1506650722261,503
1506650722270,496
1506650722278,496
1506650722286,488
1506650722294,481
1506650722302,477
1506650722311,467
1506650722318,463
1506650722326,456
1506650722335,450
1506650722343,447
1506650722351,440
1506650722355,440
1506650722363,437
1506650722372,436
1506650722380,439
1506650722388,437
1506650722396,442
1506650722404,443
1506650722413,445
1506650722421,451
1506650722429,452
1506650722437,458
1506650722445,461
1506650722453,464
1506650722462,469
1506650722470,468
1506650722479,474
1506650722486,475
1506650722494,474
1506650722503,478
1506650722510,474
1506650722514,475
1506650722523,474
1506650722531,472
1506650722539,472
1506650722547,469
1506650722556,470
1506650722564,467
1506650722572,465
1506650722580,467
1506650722588,463
1506650722596,465
1506650722605,463
1506650722613,460
1506650722621,462
1506650722630,458
1506650722638,460
1506650722646,458
1506650722654,457
1506650722662,459
1506650722670,456
1506650722674,458
1506650722682,458
1506650722691,457
1506650722700,460
1506650722708,458
1506650722716,461
1506650722724,461
1506650722733,458
1506650722740,462
1506650722748,459
1506650722756,461
1506650722764,461
1506650722773,460
1506650722781,466
1506650722790,471
1506650722798,490
1506650722806,513
1506650722814,543
1506650722822,586
1506650722830,629
1506650722835,679
1506650722843,725
1506650722851,763
1506650722859,794
1506650722867,809
1506650722876,816
1506650722884,809
1506650722892,791
1506650722900,768
1506650722908,734
1506650722917,698
1506650722925,659
1506650722933,616
1506650722941,580
1506650722949,541
1506650722957,511
1506650722966,482
1506650722974,458
1506650722982,444
1506650722990,427
1506650722994,419
1506650723002,411
1506650723011,405
1506650723019,406
1506650723027,403
1506650723035,407
1506650723043,411
1506650723052,416
1506650723059,427
1506650723067,433
1506650723076,447
1506650723084,458
1506650723092,467
1506650723100,480
1506650723108,485
1506650723117,494
1506650723125,498
1506650723134,499
1506650723141,502
1506650723149,497
1506650723154,496
1506650723162,490
1506650723170,482
1506650723178,478
1506650723186,467
1506650723194,462
1506650723202,454
1506650723211,445
1506650723219,441
1506650723227,433
1506650723235,431
1506650723243,427
1506650723252,424
1506650723259,426
1506650723268,423
1506650723276,427
1506650723284,429
1506650723292,430
1506650723300,437
1506650723308,438
1506650723313,443
1506650723321,448
1506650723330,449
1506650723338,455
1506650723346,456
1506650723355,461
1506650723363,464
1506650723371,464
1506650723379,469
1506650723387,467
1506650723396,469
1506650723404,469
1506650723412,467
1506650723420,469
1506650723428,466
1506650723436,467
1506650723444,465
1506650723452,461
1506650723460,462
1506650723468,457
1506650723473,458
1506650723482,457
1506650723490,453
1506650723498,456
1506650723506,453
1506650723514,454
1506650723523,454
1506650723531,451
1506650723539,455
1506650723547,452
1506650723555,454
1506650723563,454
1506650723571,452
1506650723580,456
1506650723587,452
1506650723596,454
1506650723604,455
1506650723612,452
1506650723620,456
1506650723629,455
1506650723633,460
1506650723640,467
1506650723649,476
1506650723657,497
1506650723665,519
1506650723673,553
1506650723682,590
1506650723691,626
1506650723699,668
1506650723707,702
1506650723715,734
1506650723723,756
1506650723732,763
1506650723740,764
1506650723747,748
1506650723755,729
1506650723764,701
1506650723772,666
1506650723780,633
1506650723788,593
1506650723792,558
1506650723800,524
1506650723809,490
1506650723817,466
1506650723826,441
1506650723834,426
1506650723842,413
1506650723850,402
1506650723859,399
1506650723867,394
1506650723875,396
1506650723883,399
1506650723891,401
1506650723900,411
1506650723908,416
1506650723916,426
1506650723924,438
1506650723932,447
1506650723940,462
1506650723948,469
1506650723953,480
1506650723961,489
1506650723969,497
1506650723977,505
1506650723985,505
1506650723994,507
1506650724001,507
1506650724010,502
1506650724018,500
1506650724026,492
1506650724034,487
1506650724043,481
1506650724051,470
1506650724059,465
1506650724067,455
1506650724076,449
1506650724084,443
1506650724092,435
1506650724100,434
1506650724108,428
1506650724114,426
1506650724121,427
1506650724129,425
1506650724137,430
1506650724145,429
1506650724153,433
1506650724161,437
1506650724169,439
1506650724178,446
1506650724186,448
1506650724194,453
1506650724202,460
1506650724210,459
1506650724218,465
1506650724227,466
1506650724235,467
1506650724243,470
1506650724251,468
1506650724259,471
1506650724267,468
1506650724272,469
1506650724280,469
1506650724289,466
1506650724296,468
1506650724305,465
1506650724313,465
1506650724321,464
1506650724329,460
1506650724338,462
1506650724345,460
1506650724354,460
1506650724362,458
1506650724370,453
1506650724378,455
1506650724386,452
1506650724394,453
1506650724403,454
1506650724411,451
1506650724419,455
1506650724428,453
1506650724435,452
1506650724440,455
1506650724448,452
1506650724456,456
1506650724464,455
1506650724473,460
1506650724481,468
1506650724489,476
1506650724497,496
1506650724505,518
1506650724513,548
1506650724522,585
1506650724530,620
1506650724538,660
1506650724546,694
1506650724554,724
1506650724562,748
1506650724570,759
1506650724578,765
1506650724586,756
1506650724595,739
1506650724599,717
1506650724607,683
1506650724615,651
1506650724623,611
1506650724632,574
1506650724640,539
1506650724648,504
1506650724656,476
1506650724664,449
1506650724673,431
1506650724681,417
1506650724689,403
1506650724698,399
1506650724706,393
1506650724714,392
1506650724722,397
1506650724731,398
1506650724739,409
1506650724747,417
1506650724755,428
1506650724759,442
1506650724767,452
1506650724775,468
1506650724784,478
1506650724792,489
1506650724800,501
1506650724808,505
1506650724816,515
1506650724826,517
1506650724833,518
1506650724841,519
1506650724849,515
1506650724857,513
1506650724866,505
1506650724874,498
1506650724882,492
1506650724890,482
1506650724898,476
1506650724906,466
1506650724914,459
1506650724919,455
1506650724927,446
1506650724935,445
1506650724943,441
1506650724953,439
1506650724960,439
1506650724969,436
1506650724977,440
1506650724986,439
1506650724993,441
1506650725001,446
1506650725011,446
1506650725018,453
1506650725026,456
1506650725034,459
1506650725042,464
1506650725050,465
1506650725058,470
1506650725066,471
1506650725074,473
1506650725078,476
1506650725087,473
1506650725095,478
1506650725103,476
1506650725112,476
1506650725119,479
1506650725128,475
1506650725136,477
1506650725144,475
1506650725152,475
1506650725160,476
1506650725168,472
1506650725177,474
1506650725186,471
1506650725194,470
1506650725201,472
1506650725210,467
1506650725218,469
1506650725226,467
1506650725234,465
1506650725239,466
1506650725246,463
1506650725255,469
1506650725263,473
1506650725271,484
1506650725279,503
1506650725288,524
1506650725296,557
1506650725304,591
1506650725313,626
1506650725320,665
1506650725329,696
1506650725337,727
1506650725345,747
1506650725353,759
1506650725361,764
1506650725371,754
1506650725379,740
1506650725386,715
1506650725394,683
1506650725398,651
1506650725406,610
1506650725415,576
1506650725423,539
1506650725431,505
1506650725440,478
1506650725447,450
1506650725456,432
1506650725464,415
1506650725472,404
1506650725480,400
1506650725488,392
1506650725496,396
1506650725505,398
1506650725513,402
1506650725521,413
1506650725530,420
1506650725538,436
1506650725545,448
1506650725553,460
1506650725558,476
1506650725566,485
1506650725574,499
1506650725582,508
1506650725590,515
1506650725599,522
1506650725607,523
1506650725615,527
1506650725623,527
1506650725632,523
1506650725640,521
1506650725648,512
1506650725656,508
1506650725664,498
1506650725672,489
1506650725681,483
1506650725689,472
1506650725697,467
1506650725705,461
1506650725713,454
1506650725717,453
1506650725725,445
1506650725734,447
1506650725742,445
1506650725750,443
1506650725758,447
1506650725767,445
1506650725775,449
1506650725783,451
1506650725791,453
1506650725799,458
1506650725808,459
1506650725816,465
1506650725824,468
1506650725833,471
1506650725841,478
1506650725849,476
1506650725857,481
1506650725865,482
1506650725873,481
1506650725878,484
1506650725886,482
1506650725894,484
1506650725902,483
1506650725910,481
1506650725919,483
1506650725927,480
1506650725935,482
1506650725943,480
1506650725951,477
1506650725959,479
1506650725968,475
1506650725976,476
1506650725984,474
1506650725992,471
1506650726000,474
1506650726008,472
1506650726017,480
1506650726025,488
1506650726033,504
1506650726038,530
1506650726046,556
1506650726054,592
1506650726062,629
1506650726070,663
1506650726078,700
1506650726086,725
1506650726095,748
1506650726102,760
1506650726111,761
1506650726119,758
1506650726127,740
1506650726135,718
1506650726144,688
1506650726152,651
1506650726160,618
1506650726168,577
1506650726177,542
1506650726185,508
1506650726193,475
1506650726197,452
1506650726205,429
1506650726213,416
1506650726222,404
1506650726230,396
1506650726238,396
1506650726246,393
1506650726254,399
1506650726262,405
1506650726271,411
1506650726279,426
1506650726287,436
1506650726296,452
1506650726304,467
1506650726312,480
1506650726320,496
1506650726328,505
1506650726336,517
1506650726344,524
1506650726353,529
1506650726357,536
1506650726365,534
1506650726373,535
1506650726381,532
1506650726389,526
1506650726398,523
1506650726406,512
1506650726414,506
1506650726422,497
1506650726431,486
1506650726439,480
1506650726447,469
1506650726455,466
1506650726463,459
1506650726472,452
1506650726480,451
1506650726488,446
1506650726496,446
1506650726504,446
1506650726512,445
1506650726516,449
1506650726525,449
1506650726533,454
1506650726541,456
1506650726550,459
1506650726558,466
1506650726566,467
1506650726574,472
1506650726582,476
1506650726590,478
1506650726598,484
1506650726607,484
1506650726615,488
1506650726623,490
1506650726631,489
1506650726640,492
1506650726648,488
1506650726656,490
1506650726664,490
1506650726672,486
1506650726680,488
1506650726684,483
1506650726693,482
1506650726701,480
1506650726709,476
1506650726717,479
1506650726725,476
1506650726734,482
1506650726742,494
1506650726750,507
1506650726758,534
1506650726766,562
1506650726775,597
1506650726783,634
1506650726791,668
1506650726799,702
1506650726808,726
1506650726815,746
1506650726824,757
1506650726832,755
1506650726840,751
1506650726844,732
1506650726853,709
1506650726861,681
1506650726869,644
1506650726877,610
1506650726885,571
1506650726893,537
1506650726901,505
1506650726910,473
1506650726918,451
1506650726926,429
1506650726934,415
1506650726943,405
1506650726951,395
1506650726959,395
1506650726967,392
1506650726975,397
1506650726984,405
1506650726992,412
1506650727000,427
1506650727004,437
1506650727012,453
1506650727020,468
1506650727029,480
1506650727037,497
1506650727044,506
1506650727053,517
1506650727060,527
1506650727069,531
1506650727077,537
1506650727085,536
1506650727094,535
1506650727102,532
1506650727111,525
1506650727119,522
1506650727127,511
1506650727135,503
1506650727143,495
1506650727151,483
1506650727159,478
1506650727164,467
1506650727171,461
1506650727180,457
1506650727188,449
1506650727196,449
1506650727204,444
1506650727212,443
1506650727220,444
1506650727229,443
1506650727238,447
1506650727245,447
1506650727253,451
1506650727262,456
1506650727270,456
1506650727278,463
1506650727286,465
1506650727294,469
1506650727302,474
1506650727311,475
1506650727319,481
1506650727323,481
1506650727333,485
1506650727340,487
1506650727348,484
1506650727356,488
1506650727364,485
1506650727373,486
1506650727381,487
1506650727389,482
1506650727398,483
1506650727405,480
1506650727414,481
1506650727422,483
1506650727430,487
1506650727438,504
1506650727446,521
1506650727455,549
1506650727463,584
1506650727471,616
1506650727479,657
1506650727483,688
1506650727491,717
1506650727499,740
1506650727507,752
1506650727516,759
1506650727525,752
1506650727533,738
1506650727541,718
1506650727548,686
1506650727556,655
1506650727564,616
1506650727574,578
1506650727582,543
1506650727590,506
1506650727598,478
1506650727606,448
1506650727614,427
1506650727623,412
1506650727631,397
1506650727639,391
1506650727643,384
1506650727651,384
1506650727659,389
1506650727667,392
1506650727676,404
1506650727684,414
1506650727692,428
1506650727700,444
1506650727709,458
1506650727717,476
1506650727725,488
1506650727733,503
1506650727741,516
1506650727749,522
1506650727757,533
1506650727765,536
1506650727773,538
1506650727783,539
1506650727790,533
1506650727798,530
1506650727803,522
1506650727811,514
1506650727819,507
1506650727827,495
1506650727836,489
1506650727843,478
1506650727852,469
1506650727860,463
1506650727868,454
1506650727876,451
1506650727884,444
1506650727894,440
1506650727901,440
1506650727909,437
1506650727917,440
1506650727925,439
1506650727934,441
1506650727942,446
1506650727950,446
1506650727958,454
1506650727962,456
1506650727970,460
1506650727978,466
1506650727987,468
1506650727995,475
1506650728003,476
1506650728011,479
1506650728019,483
1506650728028,481
1506650728036,486
1506650728044,484
1506650728052,483
1506650728061,485
1506650728069,484
1506650728078,491
1506650728085,500
1506650728093,517
1506650728102,542
1506650728110,567
1506650728118,603
1506650728122,636
1506650728131,669
1506650728139,702
1506650728146,723
1506650728155,742
1506650728163,748
1506650728171,746
1506650728179,738
1506650728187,716
1506650728195,694
1506650728204,661
1506650728212,625
1506650728220,590
1506650728228,550
1506650728237,516
1506650728244,481
1506650728254,451
1506650728261,429
1506650728269,407
1506650728277,394
1506650728281,382
1506650728289,376
1506650728297,377
1506650728306,377
1506650728314,386
1506650728322,393
1506650728331,407
1506650728339,424
1506650728347,436
1506650728355,457
1506650728363,472
1506650728371,487
1506650728379,504
1506650728388,513
1506650728396,526
1506650728404,533
1506650728412,537
1506650728420,541
1506650728429,537
1506650728438,537
1506650728441,531
1506650728449,523
1506650728457,517
1506650728465,503
1506650728474,495
1506650728482,484
1506650728490,473
1506650728498,466
1506650728506,455
1506650728515,451
1506650728523,445
1506650728532,440
1506650728540,440
1506650728548,436
1506650728556,440
1506650728565,442
1506650728574,443
1506650728581,449
1506650728590,449
1506650728597,455
1506650728601,459
1506650728610,463
1506650728618,469
1506650728626,471
1506650728634,476
1506650728643,478
1506650728651,480
1506650728659,484
1506650728667,482
1506650728675,488
1506650728683,490
1506650728691,494
1506650728700,507
1506650728708,521
1506650728716,547
1506650728724,575
1506650728733,607
1506650728741,646
1506650728749,677
1506650728757,710
1506650728761,734
1506650728769,749
1506650728777,759
1506650728786,754
1506650728794,746
1506650728802,726
1506650728810,699
1506650728819,670
1506650728827,632
1506650728835,597
1506650728843,558
1506650728851,521
1506650728860,489
1506650728867,456
1506650728876,433
1506650728884,412
1506650728892,396
1506650728900,387
1506650728908,379
1506650728916,380
1506650728924,381
1506650728929,387
1506650728937,400
1506650728944,410
1506650728953,429
1506650728961,445
1506650728970,461
1506650728978,482
1506650728986,495
1506650728994,512
1506650729002,524
1506650729011,534
1506650729019,544
1506650729027,546
1506650729035,550
1506650729044,548
1506650729052,542
1506650729060,539
1506650729068,528
1506650729076,521
1506650729084,512
1506650729088,499
1506650729097,491
1506650729105,479
1506650729113,471
1506650729121,462
1506650729130,454
1506650729138,451
1506650729146,444
1506650729154,445
1506650729162,444
1506650729171,443
1506650729178,448
1506650729186,448
1506650729195,453
1506650729203,456
1506650729211,459
1506650729219,466
1506650729227,467
1506650729236,473
1506650729244,476
1506650729248,477
1506650729256,482
1506650729265,480
1506650729273,485
1506650729281,488
1506650729289,492
1506650729297,505
1506650729305,519
1506650729314,546
1506650729322,576
1506650729331,610
1506650729339,651
1506650729346,685
1506650729355,721
1506650729363,749
1506650729371,765
1506650729379,779
1506650729387,775
1506650729396,767
1506650729403,748
1506650729408,719
1506650729416,688
1506650729424,649
1506650729433,611
1506650729441,572
1506650729449,533
1506650729457,502
1506650729466,469
1506650729474,445
1506650729482,426
1506650729490,410
1506650729498,403
1506650729506,395
1506650729515,396
1506650729523,398
1506650729531,401
1506650729539,414
1506650729548,422
1506650729556,438
1506650729564,452
1506650729568,465
1506650729576,483
1506650729584,494
1506650729593,509
1506650729601,518
1506650729609,525
1506650729617,534
1506650729625,535
1506650729634,537
1506650729642,535
1506650729650,530
1506650729658,527
1506650729666,517
1506650729674,511
1506650729682,501
1506650729691,490
1506650729699,483
1506650729707,471
1506650729715,464
1506650729723,457
1506650729727,450
1506650729736,449
1506650729744,443
1506650729753,443
1506650729760,445
1506650729768,444
1506650729777,450
1506650729785,450
1506650729793,454
1506650729801,457
1506650729810,459
1506650729818,467
1506650729826,469
1506650729834,475
1506650729843,478
1506650729850,480
1506650729859,485
1506650729867,485
1506650729875,488
1506650729883,490
1506650729888,491
1506650729896,500
1506650729903,508
1506650729912,527
1506650729920,554
1506650729928,583
1506650729937,623
1506650729945,660
1506650729952,701
1506650729961,736
1506650729969,763
1506650729977,786
1506650729985,793
1506650729993,793
1506650730001,781
1506650730010,757
1506650730018,731
1506650730026,694
1506650730035,657
1506650730043,617
1506650730048,576
1506650730055,542
1506650730063,504
1506650730071,477
1506650730079,453
1506650730088,432
1506650730096,423
1506650730104,410
1506650730112,406
1506650730120,405
1506650730129,403
1506650730137,410
1506650730145,415
1506650730153,424
1506650730161,435
1506650730169,445
1506650730178,461
1506650730186,470
1506650730194,486
1506650730202,499
1506650730206,507
1506650730216,521
1506650730224,526
1506650730231,533
1506650730240,537
1506650730248,535
1506650730256,536
1506650730264,530
1506650730272,526
1506650730280,520
1506650730288,509
1506650730296,505
1506650730305,493
1506650730313,485
1506650730321,478
1506650730329,467
1506650730338,463
1506650730346,457
1506650730354,453
1506650730362,451
1506650730366,447
1506650730374,449
1506650730382,447
1506650730390,450
1506650730400,454
1506650730408,454
1506650730415,461
1506650730423,463
1506650730432,468
1506650730441,473
1506650730449,474
1506650730457,480
1506650730465,481
1506650730473,484
1506650730481,486
1506650730489,484
1506650730498,488
1506650730506,484
1506650730514,485
1506650730522,487
1506650730526,486
1506650730534,496
1506650730543,506
1506650730550,527
1506650730558,558
1506650730567,591
1506650730575,635
1506650730583,676
1506650730591,720
1506650730600,759
1506650730607,786
1506650730616,808
1506650730624,813
1506650730633,809
1506650730641,795
1506650730649,768
1506650730657,739
1506650730665,701
1506650730673,663
1506650730681,624
1506650730686,581
1506650730694,549
1506650730702,514
1506650730710,486
1506650730718,466
1506650730727,445
1506650730735,437
1506650730743,427
1506650730751,422
1506650730759,422
1506650730768,421
1506650730776,428
1506650730784,429
1506650730792,436
1506650730800,446
1506650730808,451
1506650730817,466
1506650730825,475
1506650730834,486
1506650730841,498
1506650730849,505
1506650730854,517
1506650730862,521
1506650730870,526
1506650730878,530
1506650730886,527
1506650730895,529
1506650730903,524
1506650730911,518
1506650730919,514
1506650730927,504
1506650730936,499
1506650730945,490
1506650730953,482
1506650730961,475
1506650730969,465
1506650730977,462
1506650730985,454
1506650730993,450
1506650731001,449
1506650731009,443
1506650731013,446
1506650731022,444
1506650731030,444
1506650731038,447
1506650731046,447
1506650731054,453
1506650731062,454
1506650731071,457
1506650731079,463
1506650731087,464
1506650731095,471
1506650731103,472
1506650731114,474
1506650731120,479
1506650731129,478
1506650731137,482
1506650731145,481
1506650731153,481
1506650731161,483
1506650731169,480
1506650731173,481
1506650731181,478
1506650731190,476
1506650731198,477
1506650731206,473
1506650731214,478
1506650731222,481
1506650731230,493
1506650731239,514
1506650731247,539
1506650731255,579
1506650731264,619
1506650731272,665
1506650731280,712
1506650731288,750
1506650731297,785
1506650731304,804
1506650731313,812
1506650731321,810
1506650731329,793
1506650731334,771
1506650731342,739
1506650731350,702
1506650731358,664
1506650731366,622
1506650731374,585
1506650731382,546
1506650731390,512
1506650731399,487
1506650731407,461
1506650731415,447
1506650731423,432
1506650731431,422
1506650731440,418
1506650731447,412
1506650731456,415
1506650731464,415
1506650731473,419
1506650731481,428
1506650731489,432
1506650731493,445
1506650731501,454
1506650731509,464
1506650731518,477
1506650731526,484
1506650731534,496
1506650731542,502
1506650731550,508
1506650731558,515
1506650731567,514
1506650731575,517
1506650731583,512
1506650731591,509
1506650731599,507
1506650731607,497
1506650731616,493
1506650731624,484
1506650731632,475
1506650731640,469
1506650731648,459
1506650731653,455
1506650731661,447
1506650731669,442
1506650731677,440
1506650731685,433
1506650731693,434
1506650731701,432
1506650731709,433
1506650731718,437
1506650731726,436
1506650731735,441
1506650731743,443
1506650731751,446
1506650731759,451
1506650731767,453
1506650731776,460
1506650731784,461
1506650731792,464
1506650731800,469
1506650731808,467
1506650731812,473
1506650731820,474
1506650731828,473
1506650731837,477
1506650731845,474
1506650731853,477
1506650731861,475
1506650731869,474
1506650731877,477
1506650731885,472
1506650731895,473
1506650731903,471
1506650731911,468
1506650731919,469
1506650731927,465
1506650731935,466
1506650731944,468
1506650731951,472
1506650731959,487
1506650731967,504
1506650731972,535
1506650731980,572
1506650731988,612
1506650731996,660
1506650732004,702
1506650732012,744
1506650732021,774
1506650732029,793
1506650732038,803
1506650732046,797
1506650732054,783
1506650732062,757
1506650732070,724
1506650732078,689
1506650732086,647
1506650732095,609
1506650732102,568
1506650732111,528
1506650732119,498
1506650732127,467
1506650732132,447
1506650732140,429
1506650732148,415
1506650732156,408
1506650732165,400
1506650732173,400
1506650732181,399
1506650732189,402
1506650732198,410
1506650732206,414
1506650732214,425
1506650732222,435
1506650732230,444
1506650732238,460
1506650732247,469
1506650732255,482
1506650732263,492
1506650732271,500
1506650732279,510
1506650732287,511
1506650732291,517
1506650732300,516
1506650732308,512
1506650732316,512
1506650732324,502
1506650732332,497
1506650732341,490
1506650732348,480
1506650732357,473
1506650732365,462
1506650732374,456
1506650732382,447
1506650732390,440
1506650732398,437
1506650732406,430
1506650732415,429
1506650732423,427
1506650732431,425
1506650732439,429
1506650732447,427
1506650732451,432
1506650732459,435
1506650732468,437
1506650732476,444
1506650732484,445
1506650732492,453
1506650732500,457
1506650732508,460
1506650732517,468
1506650732525,467
1506650732533,472
1506650732541,475
1506650732549,475
1506650732557,478
1506650732565,476
1506650732574,478
1506650732582,478
1506650732590,475
1506650732598,477
1506650732606,473
1506650732610,473
1506650732619,472
1506650732627,468
1506650732636,469
1506650732644,464
1506650732652,464
1506650732660,462
1506650732669,460
1506650732677,463
1506650732685,464
1506650732693,478
1506650732701,495
1506650732709,519
1506650732718,556
1506650732726,593
1506650732734,638
1506650732742,682
1506650732750,721
1506650732758,757
1506650732766,779
1506650732772,792
1506650732779,792
1506650732787,778
1506650732795,759
1506650732803,726
1506650732812,692
1506650732819,653
1506650732828,609
1506650732836,572
1506650732845,530
1506650732853,498
1506650732861,467
1506650732869,441
1506650732877,425
1506650732885,407
1506650732894,399
1506650732902,394
1506650732910,389
1506650732918,394
1506650732926,394
1506650732934,402
1506650732940,411
1506650732948,419
1506650732955,434
1506650732963,444
1506650732971,459
1506650732980,472
1506650732988,482
1506650732996,497
1506650733004,503
1506650733013,514
1506650733020,519
1506650733029,519
1506650733037,523
1506650733045,519
1506650733053,516
1506650733061,510
1506650733070,500
1506650733078,495
1506650733086,482
1506650733094,473
1506650733098,464
1506650733107,453
1506650733115,449
1506650733124,439
1506650733131,435
1506650733140,431
1506650733148,426
1506650733156,428
1506650733164,425
1506650733172,427
1506650733180,429
1506650733188,430
1506650733196,437
1506650733204,437
1506650733213,444
1506650733221,448
1506650733229,450
1506650733238,457
1506650733246,457
1506650733253,463
1506650733257,467
1506650733266,467
1506650733274,473
1506650733282,471
1506650733290,472
1506650733298,474
1506650733307,472
1506650733315,475
1506650733323,472
1506650733332,472
1506650733340,472
1506650733348,468
1506650733356,471
1506650733364,466
1506650733373,466
1506650733381,466
1506650733389,463
1506650733397,465
1506650733405,465
1506650733413,473
1506650733418,487
1506650733426,506
1506650733435,539
1506650733443,571
1506650733451,612
1506650733459,655
1506650733467,691
1506650733476,730
1506650733484,755
1506650733492,772
1506650733500,779
1506650733508,770
1506650733516,755
1506650733525,728
1506650733533,695
1506650733541,659
1506650733549,616
1506650733556,578
1506650733565,537
1506650733572,501
1506650733577,470
1506650733586,441
1506650733594,422
1506650733602,404
1506650733611,393
1506650733619,386
1506650733627,380
1506650733635,383
1506650733643,383
1506650733651,391
1506650733660,402
1506650733668,410
1506650733677,427
1506650733684,439
1506650733693,454
1506650733701,470
1506650733709,481
1506650733717,498
1506650733725,506
1506650733733,515
1506650733737,524
1506650733746,525
1506650733753,531
1506650733762,526
1506650733770,523
1506650733779,518
1506650733787,509
1506650733795,503
1506650733803,492
1506650733811,483
1506650733819,475
1506650733828,463
1506650733836,458
1506650733845,448
1506650733852,442
1506650733860,438
1506650733868,431
1506650733876,432
1506650733885,428
1506650733893,428
1506650733897,431
1506650733905,430
1506650733914,436
1506650733921,438
1506650733929,443
1506650733938,450
1506650733946,450
1506650733955,457
1506650733962,458
1506650733971,460
1506650733979,465
1506650733987,464
1506650733995,471
1506650734003,470
1506650734013,472
1506650734020,474
1506650734029,472
1506650734037,476
1506650734045,473
1506650734052,472
1506650734056,474
1506650734065,468
1506650734073,470
1506650734081,466
1506650734089,463
1506650734098,464
1506650734106,460
1506650734115,464
1506650734122,467
1506650734130,479
1506650734139,500
1506650734147,523
1506650734155,560
1506650734163,596
1506650734173,635
1506650734179,677
1506650734188,708
1506650734195,739
1506650734204,758
1506650734212,767
1506650734216,769
1506650734224,754
1506650734232,735
1506650734241,702
1506650734249,666
1506650734257,629
1506650734265,584
1506650734273,547
1506650734282,508
1506650734290,473
1506650734298,446
1506650734306,418
1506650734314,402
1506650734323,385
1506650734331,375
1506650734339,372
1506650734347,367
1506650734355,373
1506650734363,378
1506650734371,387
1506650734375,403
1506650734383,414
1506650734392,434
1506650734400,450
1506650734408,467
1506650734416,486
1506650734424,498
1506650734433,514
1506650734442,522
1506650734450,530
1506650734458,536
1506650734466,534
1506650734474,536
1506650734483,531
1506650734491,524
1506650734499,519
1506650734507,506
1506650734515,498
1506650734524,485
1506650734532,475
1506650734536,466
1506650734544,453
1506650734552,449
1506650734560,440
1506650734569,434
1506650734577,433
1506650734585,426
1506650734593,427
1506650734601,426
1506650734609,425
1506650734618,430
1506650734626,429
1506650734634,436
1506650734642,439
1506650734651,443
1506650734659,450
1506650734667,452
1506650734675,458
1506650734683,462
1506650734692,463
1506650734696,469
1506650734704,469
1506650734712,473
1506650734720,473
1506650734728,473
1506650734736,475
1506650734745,472
1506650734753,474
1506650734761,473
1506650734769,472
1506650734777,475
1506650734785,475
1506650734794,484
1506650734803,497
1506650734811,516
1506650734819,545
1506650734827,574
1506650734835,613
1506650734843,647
1506650734851,679
1506650734855,710
1506650734863,727
1506650734872,742
1506650734880,743
1506650734888,735
1506650734896,722
1506650734904,695
1506650734912,668
1506650734920,632
1506650734929,593
1506650734938,558
1506650734946,516
1506650734953,484
1506650734961,450
1506650734970,422
1506650734979,403
1506650734987,382
1506650734995,371
1506650735003,364
1506650735011,359
1506650735019,363
1506650735023,366
1506650735031,380
1506650735040,392
1506650735048,408
1506650735056,429
1506650735064,446
1506650735073,468
1506650735080,487
1506650735089,503
1506650735097,520
1506650735105,530
1506650735113,541
1506650735121,546
1506650735130,547
1506650735138,549
1506650735146,541
1506650735154,538
1506650735162,528
1506650735170,516
1506650735178,507
1506650735182,492
1506650735191,482
1506650735199,470
1506650735207,459
1506650735216,454
1506650735224,444
1506650735233,443
1506650735241,439
1506650735249,436
1506650735257,439
1506650735265,435
1506650735274,440
1506650735282,441
1506650735290,442
1506650735298,449
1506650735306,449
1506650735314,455
1506650735323,458
1506650735331,460
1506650735339,467
1506650735343,467
1506650735351,472
1506650735359,473
1506650735368,473
1506650735376,478
1506650735384,476
1506650735392,479
1506650735400,482
1506650735409,487
1506650735417,502
1506650735425,517
1506650735433,544
1506650735441,576
1506650735449,611
1506650735457,652
1506650735465,686
1506650735474,720
1506650735482,745
1506650735490,760
1506650735498,771
1506650735503,765
1506650735511,754
1506650735519,733
1506650735527,703
1506650735535,672
1506650735543,631
1506650735552,592
1506650735560,552
1506650735568,512
1506650735576,479
1506650735584,445
1506650735593,421
1506650735601,401
1506650735609,384
1506650735617,376
1506650735625,367
1506650735634,368
1506650735642,371
1506650735650,377
1506650735658,391
1506650735662,404
1506650735670,422
1506650735679,441
1506650735687,459
1506650735695,481
1506650735703,496
1506650735711,515
1506650735720,531
1506650735728,543
1506650735736,557
1506650735744,561
1506650735752,567
1506650735761,568
1506650735769,563
1506650735777,561
1506650735785,550
1506650735793,541
1506650735801,531
1506650735809,517
1506650735817,508
1506650735822,493
1506650735830,484
1506650735839,474
1506650735847,462
1506650735855,459
1506650735863,450
1506650735871,447
1506650735879,445
1506650735888,443
1506650735896,446
1506650735904,447
1506650735912,452
1506650735920,457
1506650735928,460
1506650735937,469
1506650735945,470
1506650735953,476
1506650735961,480
1506650735969,481
1506650735977,488
1506650735981,486
1506650735991,488
1506650735998,489
1506650736007,491
1506650736014,500
1506650736022,509
1506650736030,529
1506650736039,556
1506650736048,586
1506650736055,625
1506650736064,660
1506650736072,699
1506650736080,731
1506650736088,753
1506650736096,773
1506650736104,777
1506650736113,774
1506650736121,761
1506650736129,736
1506650736137,709
1506650736142,669
1506650736150,632
1506650736158,591
1506650736166,549
1506650736175,515
1506650736183,478
1506650736192,449
1506650736199,425
1506650736207,404
1506650736215,393
1506650736223,382
1506650736232,378
1506650736240,377
1506650736248,379
1506650736256,391
1506650736265,400
1506650736273,415
1506650736281,433
1506650736289,448
1506650736297,469
1506650736301,484
1506650736309,501
1506650736318,516
1506650736326,526
1506650736334,539
1506650736342,542
1506650736351,547
1506650736359,548
1506650736367,543
1506650736375,543
1506650736383,534
1506650736391,527
1506650736399,518
1506650736408,505
1506650736416,497
1506650736424,484
1506650736432,475
1506650736441,466
1506650736449,455
1506650736456,452
1506650736461,444
1506650736469,440
1506650736477,440
1506650736485,436
1506650736493,439
1506650736501,438
1506650736511,442
1506650736519,447
1506650736528,447
1506650736536,456
1506650736544,457
1506650736551,463
1506650736559,467
1506650736568,468
1506650736576,475
1506650736584,476
1506650736592,479
1506650736601,482
1506650736609,482
1506650736616,489
1506650736621,496
1506650736629,512
1506650736637,535
1506650736645,562
1506650736654,601
1506650736662,637
1506650736670,676
1506650736678,716
1506650736686,746
1506650736695,773
1506650736704,787
1506650736711,790
1506650736719,784
1506650736728,764
1506650736736,741
1506650736743,705
1506650736752,668
1506650736760,628
1506650736768,584
1506650736776,549
1506650736780,509
1506650736788,477
1506650736796,450
1506650736805,425
1506650736813,412
1506650736821,397
1506650736829,390
1506650736838,387
1506650736846,385
1506650736854,392
1506650736862,397
1506650736870,408
1506650736878,422
1506650736887,433
1506650736895,451
1506650736903,465
1506650736912,480
1506650736919,496
1506650736928,506
1506650736936,520
1506650736944,527
1506650736948,534
1506650736956,539
1506650736965,537
1506650736973,538
1506650736981,532
1506650736989,527
1506650736997,521
1506650737005,510
1506650737014,504
1506650737022,491
1506650737030,482
1506650737038,475
1506650737047,463
1506650737055,459
1506650737063,451
1506650737071,446
1506650737081,444
1506650737088,438
1506650737096,441
1506650737100,439
1506650737108,441
1506650737116,444
1506650737124,444
1506650737132,450
1506650737141,453
1506650737149,457
1506650737157,464
1506650737165,466
1506650737173,473
1506650737182,474
1506650737190,477
1506650737198,482
1506650737206,480
1506650737214,484
1506650737222,482
1506650737231,482
1506650737239,486
1506650737248,489
1506650737255,503
1506650737263,520
1506650737267,547
1506650737276,581
1506650737284,617
1506650737292,661
1506650737300,699
1506650737308,734
1506650737317,765
1506650737326,780
1506650737334,792
1506650737342,786
1506650737350,771
1506650737357,750
1506650737366,715
1506650737374,680
1506650737382,639
1506650737391,597
1506650737398,560
1506650737407,521
1506650737415,490
1506650737423,459
1506650737427,436
1506650737435,421
1506650737444,405
1506650737452,399
1506650737460,394
1506650737468,391
1506650737476,396
1506650737485,399
1506650737494,409
1506650737502,418
1506650737510,431
1506650737518,447
1506650737526,460
1506650737534,477
1506650737543,490
1506650737551,502
1506650737558,516
1506650737567,522
1506650737575,532
1506650737583,535
1506650737587,536
1506650737595,538
1506650737603,531
1506650737612,529
1506650737620,520
1506650737628,511
1506650737636,504
1506650737645,491
1506650737653,484
1506650737661,473
1506650737669,464
1506650737677,458
1506650737686,449
1506650737694,447
1506650737702,442
1506650737710,438
1506650737718,439
1506650737727,435
1506650737735,439
1506650737743,440
1506650737747,442
1506650737755,448
1506650737764,449
1506650737772,456
1506650737780,459
1506650737788,464
1506650737796,471
1506650737804,470
1506650737813,477
1506650737821,477
1506650737829,478
1506650737837,481
1506650737845,478
1506650737854,481
1506650737862,480
1506650737870,479
1506650737878,484
1506650737886,488
1506650737895,502
1506650737902,521
1506650737907,547
1506650737915,584
1506650737923,619
1506650737931,663
1506650737940,701
1506650737948,734
1506650737956,763
1506650737964,777
1506650737973,784
1506650737980,777
1506650737989,759
1506650737997,738
1506650738005,704
1506650738013,670
1506650738021,631
1506650738029,590
1506650738038,555
1506650738046,517
1506650738053,487
1506650738062,460
1506650738066,437
1506650738074,424
1506650738082,409
1506650738091,404
1506650738099,398
1506650738107,396
1506650738115,401
1506650738123,402
1506650738132,413
1506650738140,422
1506650738148,432
1506650738156,448
1506650738164,459
1506650738173,475
1506650738181,487
1506650738189,498
1506650738197,511
1506650738205,515
1506650738214,523
1506650738221,526
1506650738226,526
1506650738234,527
1506650738242,520
1506650738251,516
1506650738259,510
1506650738267,500
1506650738275,494
1506650738284,482
1506650738292,475
1506650738300,466
1506650738308,457
1506650738316,454
1506650738324,445
1506650738333,442
1506650738341,438
1506650738349,433
1506650738357,436
1506650738365,433
1506650738373,436
1506650738381,438
1506650738386,440
1506650738394,446
1506650738402,447
1506650738410,454
1506650738418,458
1506650738426,459
1506650738435,466
1506650738444,467
1506650738452,472
1506650738460,475
1506650738468,475
1506650738476,479
1506650738484,477
1506650738492,480
1506650738501,479
1506650738509,477
1506650738517,480
1506650738525,479
1506650738534,486
1506650738542,496
1506650738546,516
1506650738554,546
1506650738562,573
1506650738571,610
1506650738579,649
1506650738587,687
1506650738595,725
1506650738603,748
1506650738611,768
1506650738619,773
1506650738627,765
1506650738636,754
1506650738644,728
1506650738652,699
1506650738660,665
1506650738668,626
1506650738676,591
1506650738685,550
1506650738693,517
1506650738701,485
1506650738705,456
1506650738715,438
1506650738722,417
1506650738730,406
1506650738738,398
1506650738746,391
1506650738754,393
1506650738762,393
1506650738771,399
1506650738779,406
1506650738787,414
1506650738795,429
1506650738803,439
1506650738812,456
1506650738820,471
1506650738828,482
1506650738836,499
1506650738844,506
1506650738853,515
1506650738860,522
1506650738865,525
1506650738873,529
1506650738881,526
1506650738889,523
1506650738897,518
1506650738906,509
1506650738914,503
1506650738922,491
1506650738930,482
1506650738938,473
1506650738947,462
1506650738955,456
1506650738963,445
1506650738972,440
1506650738980,437
1506650738988,431
1506650738996,432
1506650739004,428
1506650739012,431
1506650739021,433
1506650739025,433
1506650739033,440
1506650739041,441
1506650739050,446
1506650739058,452
1506650739065,454
1506650739073,462
1506650739082,465
1506650739090,469
1506650739099,474
1506650739107,474
1506650739115,481
1506650739123,479
1506650739131,481
1506650739139,483
1506650739148,480
1506650739156,484
1506650739164,479
1506650739173,479
1506650739181,479
1506650739189,475
1506650739193,476
1506650739201,471
1506650739209,472
1506650739218,477
1506650739226,482
1506650739234,503
1506650739243,523
1506650739251,556
1506650739258,595
1506650739267,633
1506650739274,677
1506650739283,712
1506650739291,742
1506650739299,764
1506650739307,769
1506650739316,771
1506650739324,755
1506650739332,734
1506650739340,706
1506650739348,668
1506650739353,634
1506650739362,593
1506650739369,555
1506650739378,521
1506650739386,487
1506650739395,462
1506650739402,437
1506650739410,420
1506650739418,408
1506650739427,396
1506650739435,394
1506650739443,389
1506650739451,390
1506650739459,397
1506650739468,402
1506650739476,415
1506650739484,425
1506650739492,439
1506650739500,454
1506650739508,466
1506650739513,484
1506650739521,494
1506650739529,506
1506650739538,517
1506650739545,520
1506650739554,528
1506650739561,527
1506650739570,526
1506650739578,524
1506650739587,516
1506650739595,512
1506650739603,501
1506650739611,492
1506650739620,484
1506650739627,471
1506650739635,466
1506650739644,456
1506650739652,449
1506650739659,445
1506650739667,437
1506650739672,436
1506650739680,432
1506650739688,432
1506650739696,434
1506650739705,433
1506650739713,438
1506650739721,440
1506650739730,444
1506650739738,451
1506650739746,451
1506650739755,459
1506650739762,462
1506650739771,465
1506650739779,470
1506650739787,471
1506650739795,477
1506650739803,476
1506650739812,478
1506650739819,481
1506650739827,479
1506650739832,482
1506650739840,480
1506650739848,480
1506650739856,480
1506650739865,475
1506650739873,476
1506650739881,472
1506650739890,470
1506650739897,471
1506650739905,470
1506650739914,481
1506650739922,492
1506650739930,512
1506650739938,542
1506650739947,572
1506650739956,613
1506650739963,651
1506650739971,687
1506650739979,720
1506650739987,740
1506650739991,755
1506650740000,754
1506650740008,746
1506650740016,732
1506650740024,703
1506650740032,676
1506650740041,640
1506650740049,602
1506650740057,569
1506650740065,531
1506650740073,501
1506650740081,472
1506650740090,448
1506650740098,431
1506650740106,414
1506650740114,405
1506650740122,396
1506650740131,392
1506650740139,395
1506650740148,395
1506650740151,404
1506650740159,411
1506650740168,422
1506650740176,437
1506650740184,447
1506650740192,465
1506650740200,477
1506650740208,490
1506650740217,503
1506650740225,510
1506650740233,521
1506650740242,525
1506650740250,527
1506650740258,529
1506650740266,523
1506650740274,520
1506650740283,513
1506650740291,504
1506650740299,496
1506650740307,483
1506650740311,477
1506650740319,466
1506650740328,456
1506650740336,452
1506650740344,443
1506650740352,441
1506650740360,437
1506650740368,434
1506650740376,435
1506650740384,433
1506650740393,436
1506650740401,438
1506650740409,440
1506650740417,447
1506650740425,448
1506650740433,456
1506650740442,458
1506650740450,463
1506650740458,470
1506650740466,470
1506650740470,476
1506650740479,478
1506650740487,480
1506650740495,484
1506650740503,482
1506650740511,484
1506650740519,483
1506650740528,481
1506650740536,482
1506650740545,477
1506650740553,477
1506650740560,475
1506650740569,473
1506650740577,478
1506650740585,482
1506650740593,498
1506650740601,518
1506650740609,545
1506650740618,580
1506650740626,613
1506650740630,654
1506650740638,687
1506650740647,714
1506650740655,737
1506650740663,743
1506650740671,745
1506650740679,735
1506650740687,715
1506650740695,693
1506650740704,660
1506650740712,627
1506650740720,592
1506650740728,555
1506650740737,523
1506650740745,489
1506650740754,464
1506650740761,440
1506650740770,420
1506650740778,408
1506650740785,393
1506650740790,389
1506650740798,386
1506650740807,385
1506650740815,392
1506650740823,397
1506650740831,409
1506650740839,421
1506650740848,434
1506650740856,453
1506650740864,465
1506650740872,483
1506650740881,497
1506650740889,507
1506650740897,520
1506650740905,525
1506650740913,533
1506650740921,535
1506650740930,532
1506650740938,531
1506650740946,522
1506650740950,516
1506650740958,506
1506650740966,494
1506650740974,487
1506650740982,473
1506650740990,465
1506650740999,455
1506650741007,447
1506650741015,443
1506650741023,435
1506650741032,433
1506650741039,430
1506650741048,428
1506650741057,431
1506650741064,430
1506650741073,436
1506650741081,439
1506650741089,443
1506650741097,450
1506650741105,452
1506650741109,459
1506650741117,464
1506650741126,466
1506650741134,473
1506650741143,474
1506650741151,479
1506650741159,480
1506650741167,479
1506650741175,482
1506650741183,479
1506650741192,481
1506650741200,481
1506650741208,479
1506650741216,483
1506650741224,485
1506650741233,495
1506650741241,510
1506650741249,529
1506650741257,559
1506650741265,588
1506650741269,625
1506650741278,660
1506650741286,689
1506650741294,716
1506650741302,730
1506650741310,736
1506650741318,733
1506650741327,718
1506650741335,701
1506650741343,671
1506650741352,641
1506650741360,606
1506650741368,569
1506650741376,536
1506650741384,498
1506650741392,469
1506650741401,442
1506650741409,417
1506650741417,403
1506650741425,386
1506650741433,379
1506650741438,374
1506650741446,372
1506650741454,378
1506650741461,383
1506650741469,396
1506650741478,411
1506650741486,424
1506650741494,446
1506650741503,461
1506650741511,480
1506650741520,497
1506650741527,510
1506650741536,525
1506650741544,531
1506650741553,539
1506650741560,541
1506650741568,539
1506650741576,539
1506650741584,531
1506650741592,524
1506650741598,515
1506650741605,503
1506650741613,495
1506650741621,480
1506650741629,469
1506650741638,459
1506650741646,449
1506650741654,444
1506650741662,434
1506650741670,431
1506650741679,429
1506650741687,425
1506650741695,429
1506650741703,428
1506650741711,432
1506650741719,436
1506650741728,438
1506650741736,447
1506650741744,449
1506650741753,456
1506650741758,462
1506650741766,464
1506650741773,470
1506650741782,470
1506650741789,473
1506650741798,476
1506650741806,474
1506650741814,478
1506650741822,476
1506650741830,479
1506650741838,484
1506650741847,491
1506650741855,509
1506650741863,528
1506650741872,558
1506650741880,591
1506650741888,624
1506650741896,662
1506650741905,692
1506650741912,719
1506650741917,738
1506650741925,743
1506650741933,743
1506650741942,728
1506650741949,707
1506650741958,680
1506650741966,644
1506650741974,611
1506650741982,570
1506650741990,534
1506650741998,500
1506650742006,464
1506650742014,437
1506650742023,413
1506650742031,394
1506650742039,380
1506650742048,369
1506650742056,367
1506650742064,364
1506650742072,369
1506650742076,379
1506650742084,388
1506650742093,407
1506650742101,423
1506650742109,443
1506650742117,465
1506650742126,481
1506650742134,502
1506650742142,515
1506650742151,529
1506650742159,540
1506650742166,544
1506650742174,551
1506650742182,548
1506650742191,545
1506650742199,541
1506650742207,530
1506650742216,524
1506650742223,511
1506650742232,499
1506650742236,488
1506650742244,474
1506650742252,466
1506650742260,454
1506650742268,447
1506650742277,443
1506650742285,435
1506650742294,436
1506650742302,433
1506650742310,433
1506650742319,437
1506650742326,438
1506650742334,444
1506650742343,447
1506650742351,451
1506650742359,457
1506650742367,459
1506650742375,466
1506650742384,467
1506650742392,471
1506650742396,475
1506650742404,474
1506650742413,481
1506650742420,482
1506650742429,489
1506650742437,503
1506650742445,518
1506650742453,546
1506650742461,574
1506650742470,608
1506650742478,646
1506650742487,678
1506650742494,712
1506650742503,734
1506650742510,748
1506650742519,755
1506650742527,745
1506650742535,732
1506650742543,707
1506650742551,676
1506650742556,645
1506650742564,604
1506650742572,570
1506650742580,530
1506650742588,495
1506650742596,466
1506650742605,436
1506650742613,417
1506650742621,399
1506650742629,386
1506650742637,380
1506650742646,374
1506650742654,378
1506650742663,382
1506650742671,391
1506650742678,405
1506650742686,417
1506650742695,438
1506650742702,454
1506650742710,471
1506650742715,490
1506650742723,503
1506650742731,519
1506650742739,530
1506650742748,538
1506650742756,546
1506650742764,545
1506650742773,547
1506650742781,542
1506650742789,536
1506650742797,531
1506650742805,518
1506650742814,510
1506650742822,496
1506650742831,485
1506650742838,475
1506650742847,462
1506650742856,456
1506650742863,447
1506650742870,441
1506650742875,440
1506650742883,434
1506650742891,437
1506650742900,435
1506650742908,435
1506650742916,440
1506650742924,440
1506650742932,446
1506650742941,449
1506650742949,452
1506650742957,459
1506650742965,461
1506650742973,468
1506650742982,470
1506650742990,473
1506650742998,479
1506650743006,480
1506650743015,493
1506650743023,505
1506650743031,524
1506650743035,553
1506650743043,584
1506650743051,623
1506650743059,660
1506650743067,696
1506650743075,732
1506650743084,752
1506650743092,770
1506650743100,771
1506650743108,763
1506650743116,748
1506650743124,721
1506650743133,691
1506650743141,655
1506650743149,615
1506650743158,579
1506650743165,539
1506650743174,507
1506650743181,475
1506650743189,448
1506650743194,430
1506650743202,410
1506650743210,401
1506650743218,393
1506650743226,387
1506650743235,388
1506650743243,389
1506650743252,399
1506650743260,408
1506650743268,420
1506650743276,437
1506650743284,449
1506650743292,467
1506650743300,481
1506650743309,494
1506650743317,510
1506650743325,517
1506650743333,527
1506650743342,532
1506650743350,534
1506650743354,536
1506650743362,531
1506650743370,529
1506650743378,521
1506650743387,511
1506650743395,504
1506650743403,491
1506650743411,484
1506650743419,473
1506650743427,463
1506650743436,458
1506650743444,450
1506650743453,446
1506650743461,442
1506650743469,440
1506650743477,442
1506650743485,439
1506650743494,444
1506650743502,446
1506650743510,447
1506650743518,454
1506650743522,455
1506650743530,461
1506650743538,464
1506650743547,467
1506650743555,474
1506650743563,474
1506650743571,479
1506650743579,479
1506650743588,480
1506650743596,487
1506650743604,487
1506650743612,500
1506650743620,516
1506650743628,538
1506650743636,572
1506650743645,605
1506650743653,646
1506650743661,685
1506650743669,719
1506650743678,750
1506650743682,764
1506650743690,774
1506650743698,771
1506650743707,754
1506650743715,736
1506650743723,705
1506650743731,673
1506650743739,636
1506650743747,597
1506650743756,562
1506650743763,524
1506650743772,494
1506650743780,466
1506650743788,443
1506650743796,430
1506650743804,414
1506650743813,407
1506650743821,403
1506650743829,399
1506650743837,404
1506650743842,406
1506650743850,416
1506650743858,425
1506650743866,436
1506650743874,452
1506650743883,463
1506650743891,478
1506650743899,491
1506650743907,501
1506650743916,515
1506650743924,520
1506650743932,527
1506650743940,531
1506650743948,531
1506650743956,532
1506650743964,525
1506650743972,522
1506650743980,515
1506650743988,505
1506650743996,500
1506650744001,487
1506650744009,481
1506650744017,472
1506650744025,462
1506650744034,458
1506650744042,450
1506650744050,447
1506650744059,443
1506650744066,438
1506650744075,441
1506650744082,437
1506650744091,440
1506650744099,443
1506650744107,443
1506650744115,451
1506650744124,453
1506650744132,459
1506650744140,464
1506650744149,467
1506650744157,475
1506650744162,476
1506650744170,482
1506650744178,485
1506650744186,484
1506650744194,488
1506650744202,485
1506650744210,487
1506650744219,487
1506650744227,485
1506650744235,492
1506650744243,499
1506650744251,516
1506650744259,540
1506650744267,571
1506650744276,612
1506650744284,651
1506650744292,693
1506650744300,730
1506650744308,756
1506650744317,777
1506650744321,783
1506650744329,780
1506650744337,769
1506650744346,744
1506650744354,720
1506650744361,684
1506650744369,649
1506650744377,612
1506650744385,572
1506650744394,542
1506650744402,508
1506650744410,482
1506650744418,462
1506650744426,443
1506650744434,433
1506650744443,422
1506650744452,417
1506650744460,415
1506650744468,413
1506650744476,419
1506650744480,422
1506650744488,431
1506650744496,442
1506650744504,451
1506650744513,467
1506650744521,476
1506650744529,489
1506650744537,501
1506650744545,508
1506650744554,520
1506650744562,524
1506650744570,528
1506650744578,531
1506650744586,527
1506650744594,526
1506650744603,518
1506650744611,513
1506650744619,505
1506650744627,494
1506650744635,490
1506650744640,478
1506650744648,470
1506650744656,465
1506650744665,456
1506650744673,454
1506650744682,447
1506650744689,445
1506650744697,444
1506650744706,441
1506650744714,445
1506650744722,444
1506650744730,447
1506650744738,452
1506650744747,453
1506650744755,460
1506650744763,462
1506650744771,467
1506650744779,473
1506650744787,473
1506650744796,480
1506650744800,481
1506650744808,485
1506650744816,488
1506650744824,486
1506650744833,491
1506650744841,487
1506650744850,488
1506650744858,488
1506650744866,483
1506650744874,485
1506650744882,485
1506650744890,489
1506650744898,500
1506650744906,515
1506650744914,544
1506650744922,575
1506650744931,614
1506650744939,656
1506650744948,691
1506650744956,726
1506650744960,748
1506650744968,762
1506650744976,768
1506650744984,760
1506650744992,748
1506650745001,724
1506650745009,696
1506650745017,665
1506650745025,628
1506650745033,597
1506650745041,560
1506650745050,528
1506650745058,502
1506650745066,475
1506650745075,457
1506650745083,441
1506650745091,429
1506650745099,422
1506650745107,414
1506650745115,415
1506650745119,412
1506650745127,416
1506650745136,423
1506650745144,427
1506650745152,440
1506650745160,449
1506650745168,460
1506650745176,474
1506650745184,483
1506650745194,496
1506650745201,503
1506650745209,511
1506650745218,517
1506650745225,517
1506650745233,521
1506650745242,517
1506650745251,514
1506650745259,511
1506650745267,502
1506650745275,496
1506650745279,486
1506650745288,476
1506650745296,470
1506650745304,459
1506650745312,455
1506650745320,447
1506650745329,443
1506650745337,441
1506650745345,435
1506650745353,438
1506650745361,437
1506650745369,438
1506650745379,443
1506650745386,443
1506650745394,449
1506650745402,452
1506650745410,455
1506650745419,461
1506650745427,462
1506650745435,469
1506650745439,470
1506650745447,473
1506650745456,478
1506650745463,477
1506650745472,481
1506650745480,481
1506650745488,481
1506650745496,483
1506650745504,480
1506650745512,483
1506650745521,479
1506650745529,477
1506650745537,478
1506650745545,473
1506650745553,473
1506650745562,471
1506650745569,471
1506650745577,479
1506650745585,486
1506650745593,506
1506650745598,530
1506650745606,564
1506650745614,606
1506650745622,644
1506650745630,687
1506650745639,719
1506650745647,745
1506650745656,764
1506650745664,767
1506650745672,765
1506650745680,751
1506650745689,729
1506650745697,704
1506650745705,668
1506650745713,635
1506650745721,597
1506650745729,560
1506650745738,529
1506650745745,494
1506650745754,471
1506650745762,450
1506650745766,432
1506650745774,423
