time,value
1506651574500,481
1506651574508,479
1506651574512,473
1506651574520,479
1506651574528,476
1506651574536,480
1506651574545,486
1506651574553,487
1506651574561,497
1506651574569,498
1506651574577,503
1506651574586,509
1506651574594,507
1506651574602,514
1506651574610,509
1506651574618,510
1506651574626,510
1506651574635,501
1506651574643,501
1506651574651,492
1506651574659,486
1506651574667,482
1506651574671,472
1506651574680,470
1506651574688,461
1506651574696,458
1506651574704,456
1506651574712,446
1506651574721,450
1506651574729,445
1506651574737,445
1506651574745,447
1506651574753,443
1506651574762,450
1506651574770,448
1506651574778,451
1506651574786,456
1506651574794,454
1506651574802,461
1506651574811,460
1506651574819,462
1506651574827,468
1506651574831,464
1506651574839,470
1506651574848,468
1506651574856,470
1506651574864,473
1506651574872,471
1506651574880,475
1506651574889,472
1506651574897,472
1506651574905,474
1506651574913,468
1506651574921,471
1506651574929,466
1506651574938,462
1506651574946,463
1506651574954,456
1506651574962,458
1506651574970,453
1506651574979,452
1506651574986,452
1506651574991,448
1506651574999,456
1506651575008,460
1506651575016,472
1506651575024,495
1506651575032,516
1506651575040,552
1506651575048,587
1506651575057,626
1506651575065,668
1506651575073,699
1506651575081,734
1506651575090,754
1506651575098,768
1506651575106,780
1506651575114,772
1506651575122,767
1506651575130,749
1506651575139,726
1506651575147,705
1506651575151,673
1506651575159,650
1506651575167,622
1506651575175,598
1506651575184,580
1506651575192,557
1506651575200,548
1506651575208,535
1506651575216,525
1506651575224,522
1506651575232,511
1506651575241,510
1506651575249,504
1506651575257,499
1506651575265,498
1506651575274,491
1506651575282,493
1506651575290,489
1506651575299,488
1506651575306,492
1506651575310,489
1506651575319,494
1506651575327,494
1506651575335,494
1506651575343,498
1506651575351,494
1506651575359,497
1506651575367,494
1506651575376,491
1506651575385,491
1506651575393,482
1506651575401,481
1506651575409,474
1506651575418,468
1506651575426,467
1506651575434,459
1506651575442,459
1506651575450,455
1506651575458,450
1506651575466,451
1506651575471,445
1506651575479,448
1506651575487,445
1506651575495,446
1506651575503,448
1506651575512,451
1506651575520,457
1506651575528,456
1506651575536,456
1506651575545,460
1506651575552,460
1506651575561,463
1506651575569,462
1506651575577,462
1506651575585,465
1506651575593,456
1506651575602,457
1506651575610,454
1506651575618,451
1506651575626,455
1506651575634,451
1506651575638,454
1506651575646,453
1506651575654,452
1506651575663,454
1506651575671,451
1506651575679,455
1506651575687,451
1506651575696,448
1506651575704,449
1506651575712,444
1506651575720,445
1506651575728,442
1506651575736,440
1506651575745,444
1506651575753,442
1506651575761,450
1506651575769,456
1506651575777,468
1506651575785,491
1506651575794,513
1506651575798,550
1506651575806,586
1506651575814,623
1506651575822,667
1506651575830,699
1506651575838,731
1506651575847,751
1506651575855,763
1506651575863,772
1506651575871,764
1506651575879,757
1506651575888,738
1506651575896,715
1506651575905,692
1506651575912,660
1506651575920,635
1506651575929,608
1506651575937,582
1506651575945,566
1506651575953,547
1506651575957,536
1506651575966,524
1506651575974,515
1506651575983,513
1506651575991,505
1506651575999,503
1506651576007,497
1506651576015,490
1506651576023,490
1506651576031,482
1506651576039,482
1506651576048,480
1506651576056,479
1506651576064,482
1506651576072,479
1506651576080,483
1506651576088,483
1506651576097,482
1506651576105,487
1506651576113,483
1506651576117,486
1506651576126,484
1506651576134,478
1506651576142,479
1506651576151,472
1506651576159,471
1506651576167,466
1506651576175,460
1506651576183,461
1506651576192,453
1506651576200,453
1506651576208,451
1506651576216,444
1506651576225,446
1506651576232,439
1506651576241,440
1506651576249,439
1506651576257,437
1506651576265,441
1506651576273,438
1506651576279,442
1506651576286,443
1506651576294,441
1506651576302,448
1506651576311,445
1506651576319,449
1506651576326,450
1506651576334,448
1506651576342,453
1506651576350,450
1506651576359,453
1506651576368,453
1506651576376,451
1506651576384,456
1506651576392,452
1506651576400,455
1506651576408,454
1506651576416,452
1506651576425,456
1506651576432,451
1506651576437,453
1506651576446,452
1506651576454,449
1506651576462,452
1506651576471,448
1506651576478,449
1506651576486,448
1506651576495,444
1506651576503,448
1506651576511,445
1506651576519,448
1506651576527,450
1506651576535,452
1506651576543,466
1506651576551,480
1506651576560,506
1506651576568,536
1506651576576,570
1506651576584,615
1506651576592,651
1506651576597,691
1506651576605,725
1506651576613,747
1506651576622,769
1506651576630,774
1506651576638,775
1506651576645,767
1506651576655,748
1506651576662,731
1506651576671,701
1506651576679,673
1506651576687,644
1506651576695,612
1506651576703,592
1506651576711,564
1506651576719,547
1506651576727,533
1506651576736,519
1506651576744,515
1506651576752,508
1506651576756,506
1506651576764,501
1506651576773,496
1506651576781,497
1506651576789,490
1506651576798,490
1506651576806,491
1506651576814,485
1506651576823,490
1506651576831,488
1506651576839,490
1506651576846,493
1506651576854,492
1506651576863,501
1506651576871,501
1506651576879,507
1506651576887,510
1506651576896,503
1506651576904,505
1506651576912,500
1506651576916,499
1506651576924,498
1506651576932,492
1506651576941,493
1506651576949,489
1506651576957,489
1506651576965,487
1506651576973,482
1506651576981,484
1506651576990,479
1506651576999,479
1506651577006,479
1506651577014,475
1506651577023,479
1506651577030,476
1506651577038,476
1506651577048,477
1506651577056,473
1506651577064,477
1506651577072,473
1506651577076,475
1506651577085,474
1506651577093,471
1506651577101,475
1506651577109,470
1506651577117,471
1506651577125,473
1506651577133,469
1506651577141,472
1506651577150,468
1506651577158,468
1506651577166,468
1506651577174,464
1506651577183,468
1506651577190,462
1506651577200,462
1506651577207,462
1506651577215,456
1506651577224,459
1506651577232,454
1506651577235,454
1506651577244,454
1506651577252,453
1506651577260,457
1506651577268,457
1506651577277,464
1506651577285,476
1506651577293,489
1506651577302,515
1506651577309,541
1506651577318,575
1506651577326,612
1506651577334,646
1506651577342,684
1506651577350,712
1506651577360,735
1506651577367,753
1506651577375,757
1506651577383,760
1506651577391,747
1506651577399,731
1506651577404,711
1506651577412,680
1506651577420,656
1506651577428,625
1506651577437,598
1506651577445,576
1506651577453,551
1506651577461,537
1506651577470,519
1506651577477,508
1506651577485,501
1506651577494,490
1506651577502,489
1506651577510,481
1506651577519,479
1506651577527,479
1506651577535,471
1506651577545,475
1506651577551,467
1506651577559,466
1506651577564,470
1506651577571,469
1506651577580,479
1506651577588,481
1506651577596,487
1506651577605,495
1506651577613,496
1506651577621,503
1506651577629,502
1506651577637,501
1506651577646,500
1506651577653,492
1506651577662,491
1506651577670,482
1506651577678,475
1506651577686,470
1506651577695,460
1506651577703,458
1506651577711,450
1506651577719,444
1506651577723,443
1506651577732,435
1506651577740,436
1506651577748,433
1506651577756,432
1506651577764,433
1506651577772,430
1506651577780,435
1506651577788,433
1506651577797,435
1506651577805,440
1506651577813,439
1506651577821,446
1506651577830,446
1506651577838,448
1506651577846,453
1506651577854,450
1506651577862,456
1506651577870,455
1506651577878,455
1506651577883,458
1506651577891,453
1506651577899,454
1506651577907,450
1506651577916,448
1506651577924,448
1506651577932,442
1506651577940,443
1506651577948,438
1506651577956,437
1506651577965,440
1506651577973,436
1506651577981,443
1506651577989,446
1506651577998,457
1506651578006,477
1506651578014,497
1506651578022,530
1506651578030,563
1506651578038,602
1506651578042,643
1506651578050,676
1506651578059,711
1506651578067,735
1506651578075,750
1506651578084,762
1506651578091,759
1506651578100,754
1506651578108,737
1506651578116,716
1506651578124,695
1506651578132,664
1506651578141,641
1506651578149,614
1506651578157,588
1506651578165,571
1506651578173,549
1506651578182,538
1506651578190,525
1506651578198,515
1506651578202,509
1506651578210,498
1506651578218,495
1506651578227,487
1506651578235,483
1506651578243,478
1506651578251,466
1506651578259,465
1506651578267,460
1506651578275,456
1506651578284,459
1506651578292,454
1506651578301,459
1506651578309,459
1506651578316,461
1506651578325,466
1506651578333,465
1506651578341,470
1506651578349,469
1506651578357,468
1506651578362,475
1506651578370,468
1506651578378,470
1506651578386,467
1506651578395,464
1506651578403,465
1506651578411,460
1506651578419,462
1506651578427,459
1506651578435,458
1506651578444,461
1506651578452,458
1506651578460,463
1506651578468,463
1506651578476,463
1506651578485,470
1506651578493,470
1506651578501,477
1506651578509,473
1506651578517,475
1506651578522,477
1506651578530,469
1506651578538,473
1506651578546,471
1506651578554,463
1506651578563,463
1506651578571,454
1506651578579,453
1506651578587,448
1506651578596,443
1506651578604,442
1506651578611,435
1506651578620,435
1506651578628,430
1506651578636,426
1506651578644,427
1506651578652,422
1506651578660,423
1506651578669,422
1506651578677,420
1506651578681,425
1506651578689,423
1506651578698,428
1506651578706,430
1506651578714,435
1506651578722,448
1506651578730,459
1506651578739,483
1506651578747,507
1506651578755,537
1506651578763,578
1506651578771,612
1506651578780,653
1506651578788,687
1506651578796,715
1506651578804,741
1506651578812,752
1506651578820,761
1506651578828,758
1506651578836,746
1506651578840,734
1506651578849,708
1506651578857,686
1506651578865,659
1506651578873,630
1506651578881,609
1506651578890,581
1506651578899,565
1506651578907,547
1506651578915,532
1506651578923,525
1506651578931,513
1506651578939,508
1506651578947,501
1506651578955,492
1506651578964,489
1506651578972,479
1506651578980,475
1506651578988,470
1506651578997,464
1506651579001,465
1506651579010,460
1506651579017,462
1506651579026,462
1506651579034,462
1506651579042,469
1506651579050,467
1506651579058,472
1506651579066,475
1506651579074,475
1506651579084,485
1506651579091,482
1506651579099,482
1506651579108,479
1506651579115,470
1506651579124,468
1506651579132,460
1506651579140,458
1506651579148,454
1506651579156,448
1506651579161,451
1506651579169,445
1506651579176,446
1506651579186,447
1506651579194,445
1506651579202,451
1506651579210,448
1506651579218,450
1506651579226,451
1506651579234,449
1506651579242,455
1506651579250,452
1506651579259,456
1506651579267,457
1506651579275,455
1506651579284,461
1506651579292,459
1506651579300,462
1506651579309,464
1506651579317,463
1506651579321,467
1506651579329,464
1506651579337,467
1506651579346,467
1506651579354,464
1506651579362,467
1506651579370,463
1506651579378,462
1506651579386,461
1506651579394,456
1506651579403,458
1506651579411,451
1506651579419,452
1506651579427,451
1506651579435,449
1506651579443,455
1506651579451,456
1506651579460,466
1506651579468,480
1506651579476,496
1506651579484,528
1506651579488,558
1506651579497,596
1506651579505,636
1506651579513,671
1506651579522,709
1506651579529,733
1506651579539,756
1506651579546,771
1506651579554,773
1506651579562,774
1506651579571,760
1506651579579,746
1506651579587,728
1506651579595,700
1506651579603,680
1506651579611,653
1506651579619,632
1506651579628,613
1506651579635,592
1506651579644,582
1506651579648,565
1506651579656,555
1506651579664,546
1506651579672,533
1506651579681,529
1506651579689,519
1506651579697,515
1506651579706,510
1506651579714,505
1506651579723,508
1506651579730,504
1506651579739,507
1506651579746,510
1506651579755,509
1506651579763,515
1506651579771,513
1506651579779,513
1506651579787,512
1506651579795,506
1506651579803,507
1506651579808,500
1506651579816,496
1506651579824,492
1506651579832,483
1506651579840,481
1506651579848,471
1506651579856,467
1506651579865,464
1506651579874,455
1506651579881,456
1506651579889,451
1506651579899,451
1506651579906,452
1506651579915,448
1506651579923,453
1506651579931,450
1506651579939,452
1506651579947,455
1506651579955,453
1506651579963,458
1506651579968,457
1506651579976,459
1506651579984,464
1506651579992,463
1506651580000,469
1506651580009,469
1506651580017,472
1506651580025,475
1506651580033,473
1506651580042,478
1506651580050,475
1506651580059,476
1506651580066,477
1506651580075,472
1506651580083,476
1506651580091,472
1506651580099,470
1506651580107,469
1506651580115,463
1506651580123,465
1506651580127,460
1506651580135,459
1506651580144,459
1506651580152,455
1506651580160,460
1506651580168,461
1506651580176,469
1506651580184,485
1506651580192,501
1506651580201,531
1506651580209,562
1506651580217,600
1506651580225,640
1506651580235,677
1506651580242,717
1506651580252,744
1506651580259,768
1506651580267,785
1506651580275,787
1506651580283,788
1506651580287,775
1506651580296,758
1506651580304,738
1506651580312,709
1506651580319,687
1506651580328,656
1506651580336,631
1506651580344,609
1506651580352,584
1506651580361,572
1506651580369,555
1506651580377,543
1506651580386,534
1506651580394,520
1506651580402,514
1506651580410,504
1506651580419,496
1506651580426,491
1506651580435,481
1506651580443,482
1506651580447,476
1506651580455,474
1506651580464,476
1506651580471,472
1506651580480,478
1506651580488,478
1506651580496,480
1506651580504,485
1506651580513,483
1506651580521,489
1506651580529,486
1506651580537,487
1506651580545,488
1506651580554,481
1506651580562,483
1506651580570,477
1506651580578,472
1506651580586,471
1506651580595,462
1506651580603,461
1506651580606,455
1506651580615,452
1506651580623,451
1506651580631,444
1506651580639,446
1506651580647,442
1506651580655,442
1506651580664,445
1506651580672,442
1506651580680,447
1506651580688,447
1506651580696,449
1506651580705,454
1506651580713,453
1506651580721,460
1506651580729,459
1506651580737,461
1506651580746,465
1506651580754,462
1506651580762,466
1506651580766,464
1506651580774,462
1506651580782,463
1506651580791,457
1506651580799,458
1506651580807,452
1506651580815,450
1506651580824,449
1506651580832,442
1506651580840,445
1506651580848,442
1506651580856,443
1506651580864,450
1506651580872,452
1506651580881,469
1506651580889,486
1506651580897,510
1506651580905,545
1506651580913,577
1506651580921,618
1506651580926,655
1506651580934,689
1506651580942,721
1506651580950,741
1506651580959,759
1506651580967,763
1506651580975,759
1506651580983,753
1506651580991,732
1506651581000,714
1506651581008,687
1506651581016,659
1506651581024,635
1506651581032,605
1506651581040,584
1506651581048,562
1506651581057,546
1506651581065,533
1506651581073,514
1506651581081,505
1506651581089,492
1506651581093,482
1506651581102,478
1506651581111,466
1506651581118,464
1506651581126,456
1506651581134,453
1506651581143,454
1506651581151,450
1506651581160,454
1506651581168,454
1506651581176,456
1506651581185,464
1506651581193,465
1506651581201,471
1506651581209,471
1506651581216,475
1506651581225,478
1506651581233,472
1506651581241,477
1506651581249,475
1506651581253,471
1506651581262,471
1506651581269,463
1506651581278,462
1506651581286,456
1506651581295,446
1506651581303,444
1506651581311,437
1506651581319,438
1506651581327,436
1506651581335,435
1506651581344,440
1506651581352,437
1506651581360,445
1506651581368,445
1506651581376,445
1506651581384,451
1506651581393,450
1506651581401,454
1506651581409,455
1506651581413,456
1506651581421,460
1506651581429,457
1506651581438,460
1506651581446,459
1506651581454,457
1506651581462,460
1506651581470,454
1506651581479,455
1506651581487,452
1506651581495,449
1506651581504,450
1506651581512,446
1506651581519,449
1506651581528,448
1506651581536,445
1506651581544,448
1506651581552,446
1506651581560,451
1506651581568,454
1506651581572,454
1506651581581,465
1506651581589,476
1506651581598,500
1506651581606,524
1506651581613,553
1506651581622,590
1506651581630,620
1506651581638,654
1506651581646,678
1506651581655,695
1506651581664,710
1506651581672,710
1506651581680,707
1506651581688,693
1506651581696,673
1506651581704,653
1506651581712,623
1506651581720,598
1506651581729,571
1506651581733,544
1506651581741,525
1506651581749,502
1506651581757,489
1506651581766,476
1506651581773,465
1506651581782,460
1506651581790,450
1506651581799,449
1506651581807,444
1506651581814,439
1506651581823,440
1506651581831,434
1506651581839,437
1506651581847,437
1506651581855,438
1506651581864,444
1506651581872,444
1506651581880,450
1506651581888,452
1506651581892,454
1506651581901,461
1506651581909,458
1506651581917,462
1506651581926,461
1506651581933,458
1506651581942,460
1506651581950,453
1506651581958,451
1506651581966,447
1506651581974,440
1506651581982,439
1506651581990,431
1506651581999,429
1506651582007,425
1506651582016,419
1506651582024,421
1506651582032,416
1506651582040,417
1506651582048,416
1506651582053,414
1506651582062,419
1506651582070,417
1506651582077,422
1506651582086,424
1506651582094,424
1506651582102,431
1506651582110,429
1506651582117,433
1506651582126,435
1506651582134,433
1506651582142,439
1506651582150,435
1506651582158,437
1506651582166,437
1506651582176,434
1506651582184,438
1506651582192,434
1506651582200,435
1506651582208,435
1506651582212,431
1506651582221,434
1506651582230,430
1506651582237,431
1506651582245,430
1506651582253,426
1506651582261,428
1506651582270,423
1506651582278,424
1506651582286,422
1506651582294,419
1506651582302,424
1506651582310,426
1506651582318,431
1506651582326,440
1506651582334,451
1506651582342,476
1506651582351,499
1506651582359,535
1506651582367,574
1506651582371,613
1506651582380,659
1506651582389,692
1506651582398,725
1506651582405,750
1506651582413,761
1506651582422,772
1506651582430,766
1506651582438,758
1506651582446,740
1506651582454,716
1506651582462,692
1506651582470,660
1506651582478,634
1506651582486,607
1506651582494,579
1506651582503,562
1506651582511,539
1506651582519,525
1506651582527,514
1506651582531,499
1506651582540,494
1506651582548,482
1506651582556,475
1506651582564,469
1506651582574,460
1506651582580,460
1506651582590,453
1506651582598,454
1506651582606,455
1506651582614,452
1506651582621,459
1506651582630,457
1506651582638,461
1506651582646,465
1506651582654,464
1506651582662,470
1506651582670,468
1506651582678,470
1506651582686,468
1506651582695,463
1506651582700,463
1506651582708,456
1506651582716,453
1506651582724,450
1506651582732,441
1506651582740,440
1506651582749,433
1506651582757,430
1506651582766,427
1506651582774,421
1506651582781,424
1506651582790,419
1506651582798,422
1506651582806,423
1506651582814,421
1506651582822,427
1506651582830,426
1506651582838,430
1506651582846,433
1506651582854,433
1506651582859,439
1506651582867,438
1506651582875,440
1506651582884,442
1506651582892,438
1506651582901,442
1506651582909,438
1506651582917,439
1506651582925,440
1506651582933,435
1506651582941,438
1506651582950,435
1506651582959,434
1506651582967,436
1506651582974,432
1506651582982,435
1506651582991,432
1506651582999,432
1506651583007,433
1506651583015,428
1506651583019,431
1506651583027,427
1506651583035,426
1506651583043,426
1506651583052,422
1506651583060,425
1506651583068,421
1506651583076,423
1506651583084,425
1506651583093,425
1506651583101,437
1506651583109,447
1506651583117,467
1506651583126,495
1506651583133,523
1506651583142,564
1506651583150,602
1506651583158,643
1506651583166,681
1506651583174,710
1506651583178,739
1506651583187,753
1506651583195,762
1506651583203,763
1506651583211,751
1506651583219,740
1506651583228,718
1506651583236,693
1506651583244,668
1506651583252,637
1506651583260,613
1506651583269,585
1506651583277,563
1506651583285,546
1506651583293,526
1506651583301,515
1506651583310,501
1506651583318,492
1506651583326,486
1506651583334,475
1506651583338,473
1506651583346,464
1506651583354,461
1506651583363,461
1506651583371,456
1506651583379,459
1506651583387,457
1506651583395,459
1506651583404,464
1506651583412,462
1506651583420,469
1506651583429,469
1506651583437,471
1506651583445,473
1506651583453,470
1506651583461,471
1506651583469,466
1506651583478,463
1506651583486,461
1506651583494,452
1506651583498,451
1506651583506,443
1506651583514,439
1506651583523,437
1506651583531,429
1506651583539,429
1506651583547,424
1506651583555,422
1506651583564,423
1506651583572,420
1506651583580,424
1506651583588,422
1506651583596,424
1506651583605,428
1506651583613,425
1506651583621,431
1506651583629,430
1506651583638,432
1506651583646,436
1506651583654,433
1506651583658,438
1506651583666,437
1506651583675,439
1506651583682,442
1506651583691,439
1506651583699,443
1506651583707,440
1506651583715,439
1506651583723,442
1506651583731,437
1506651583740,441
1506651583748,437
1506651583756,435
1506651583764,437
1506651583772,432
1506651583780,435
1506651583789,431
1506651583797,430
1506651583805,433
1506651583813,426
1506651583817,429
1506651583826,425
1506651583833,423
1506651583842,425
1506651583850,420
1506651583858,423
1506651583866,422
1506651583874,424
1506651583883,430
1506651583891,434
1506651583900,451
1506651583908,469
1506651583916,495
1506651583924,529
1506651583932,562
1506651583940,603
1506651583948,640
1506651583956,675
1506651583965,707
1506651583973,728
1506651583977,747
1506651583985,752
1506651583993,752
1506651584002,746
1506651584010,727
1506651584018,711
1506651584027,686
1506651584035,659
1506651584043,636
1506651584051,607
1506651584059,586
1506651584068,563
1506651584076,546
1506651584084,534
1506651584092,519
1506651584100,513
1506651584109,502
1506651584116,494
1506651584125,490
1506651584133,479
1506651584137,476
1506651584145,469
1506651584153,464
1506651584161,465
1506651584170,459
1506651584178,462
1506651584186,461
1506651584194,461
1506651584203,467
1506651584211,464
1506651584219,469
1506651584227,468
1506651584235,468
1506651584244,470
1506651584252,465
1506651584260,466
1506651584268,462
1506651584276,457
1506651584284,456
1506651584292,448
1506651584296,448
1506651584305,441
1506651584313,436
1506651584322,436
1506651584330,429
1506651584338,430
1506651584346,427
1506651584354,424
1506651584363,427
1506651584371,423
1506651584379,428
1506651584387,427
1506651584395,427
1506651584404,432
1506651584412,429
1506651584420,433
1506651584428,433
1506651584436,433
1506651584445,437
1506651584453,433
1506651584460,436
1506651584465,435
1506651584473,434
1506651584481,437
1506651584489,433
1506651584497,435
1506651584506,433
1506651584514,431
1506651584522,434
1506651584530,429
1506651584538,431
1506651584546,430
1506651584554,428
1506651584563,430
1506651584571,427
1506651584579,429
1506651584587,426
1506651584595,424
1506651584604,425
1506651584612,419
1506651584620,419
1506651584624,416
1506651584632,412
1506651584640,415
1506651584649,410
1506651584657,414
1506651584665,417
1506651584673,424
1506651584681,441
1506651584689,458
1506651584698,487
1506651584706,519
1506651584714,552
1506651584722,595
1506651584730,629
1506651584739,667
1506651584747,696
1506651584755,716
1506651584763,736
1506651584771,740
1506651584779,741
1506651584784,732
1506651584792,715
1506651584800,699
1506651584809,672
1506651584817,650
1506651584825,624
1506651584833,597
1506651584841,579
1506651584849,555
1506651584857,541
1506651584865,526
1506651584874,511
1506651584882,505
1506651584890,493
1506651584898,489
1506651584907,481
1506651584915,475
1506651584923,475
1506651584931,468
1506651584939,468
1506651584943,467
1506651584951,466
1506651584960,471
1506651584968,470
1506651584976,475
1506651584984,476
1506651584992,477
1506651585001,482
1506651585009,479
1506651585017,482
1506651585026,481
1506651585034,477
1506651585042,478
1506651585050,470
1506651585058,467
1506651585066,462
1506651585075,454
1506651585083,452
1506651585091,443
1506651585099,441
1506651585103,437
1506651585111,432
1506651585119,434
1506651585128,428
1506651585136,430
1506651585144,429
1506651585152,426
1506651585160,430
1506651585168,428
1506651585176,432
1506651585185,433
1506651585193,432
1506651585202,443
1506651585210,439
1506651585218,442
1506651585226,444
1506651585234,442
1506651585243,448
1506651585251,446
1506651585259,448
1506651585263,447
1506651585271,444
1506651585279,447
1506651585288,443
1506651585296,443
1506651585305,442
1506651585313,438
1506651585321,441
1506651585329,435
1506651585337,435
1506651585346,434
1506651585354,430
1506651585362,433
1506651585370,427
1506651585378,428
1506651585386,427
1506651585394,422
1506651585403,425
1506651585411,423
1506651585419,425
1506651585423,430
1506651585431,435
1506651585439,454
1506651585448,469
1506651585456,498
1506651585464,529
1506651585472,561
1506651585480,601
1506651585489,635
1506651585498,669
1506651585505,697
1506651585513,716
1506651585521,732
1506651585529,735
1506651585537,734
1506651585546,725
1506651585554,708
1506651585562,691
1506651585570,663
1506651585578,639
1506651585583,615
1506651585591,587
1506651585599,570
1506651585607,547
1506651585615,533
1506651585623,521
1506651585631,513
1506651585639,510
1506651585647,498
1506651585656,492
1506651585664,488
1506651585672,480
1506651585680,485
1506651585688,482
1506651585697,487
1506651585706,487
1506651585714,487
1506651585721,495
1506651585730,492
1506651585738,492
1506651585742,492
1506651585750,489
1506651585758,491
1506651585767,486
1506651585775,487
1506651585783,486
1506651585791,479
1506651585799,481
1506651585808,474
1506651585816,469
1506651585824,466
1506651585832,457
1506651585840,456
1506651585848,448
1506651585857,445
1506651585865,442
1506651585873,434
1506651585881,436
1506651585889,431
1506651585898,430
1506651585902,434
1506651585910,431
1506651585918,440
1506651585926,438
1506651585934,442
1506651585943,445
1506651585951,445
1506651585959,456
1506651585967,454
1506651585975,461
1506651585984,463
1506651585992,463
1506651586000,466
1506651586008,460
1506651586017,459
1506651586025,459
1506651586033,455
1506651586041,459
1506651586049,454
1506651586057,454
1506651586066,454
1506651586070,448
1506651586078,450
1506651586086,445
1506651586094,447
1506651586103,444
1506651586111,439
1506651586118,436
1506651586127,430
1506651586135,428
1506651586143,428
1506651586151,424
1506651586159,428
1506651586168,427
1506651586176,433
1506651586184,444
1506651586192,454
1506651586201,480
1506651586210,504
1506651586218,539
1506651586221,578
1506651586229,614
1506651586237,657
1506651586246,691
1506651586254,723
1506651586262,750
1506651586270,762
1506651586278,773
1506651586287,770
1506651586295,761
1506651586304,750
1506651586312,727
1506651586320,707
1506651586328,681
1506651586336,655
1506651586345,634
1506651586353,607
1506651586361,594
1506651586369,577
1506651586377,566
1506651586385,559
1506651586389,547
1506651586397,548
1506651586406,540
1506651586414,530
1506651586422,525
1506651586430,515
1506651586438,512
1506651586446,504
1506651586454,498
1506651586462,497
1506651586471,489
1506651586479,492
1506651586487,490
1506651586496,488
1506651586505,491
1506651586513,492
1506651586521,499
1506651586529,498
1506651586537,492
1506651586545,491
1506651586550,484
1506651586558,485
1506651586566,480
1506651586574,474
1506651586582,473
1506651586590,463
1506651586599,463
1506651586607,457
1506651586615,453
1506651586623,452
1506651586631,446
1506651586640,448
1506651586648,444
1506651586656,442
1506651586664,445
1506651586672,441
1506651586681,445
1506651586689,444
1506651586697,445
1506651586705,449
1506651586709,447
1506651586717,452
1506651586726,452
1506651586734,453
1506651586742,456
1506651586750,454
1506651586758,458
1506651586766,456
1506651586775,455
1506651586783,458
1506651586791,454
1506651586799,457
1506651586807,456
1506651586816,454
1506651586824,456
1506651586832,452
1506651586840,454
1506651586848,450
1506651586856,448
1506651586864,450
1506651586869,444
1506651586877,445
1506651586885,442
1506651586893,438
1506651586901,440
1506651586910,435
1506651586918,437
1506651586926,436
1506651586934,438
1506651586942,453
1506651586950,459
1506651586959,477
1506651586967,496
1506651586975,522
1506651586984,559
1506651586992,595
1506651587000,635
1506651587009,673
1506651587017,704
1506651587024,739
1506651587029,759
1506651587037,776
1506651587045,778
1506651587053,773
1506651587061,766
1506651587069,745
1506651587077,727
1506651587086,701
1506651587094,674
1506651587102,653
1506651587111,628
1506651587119,611
1506651587127,592
1506651587135,580
1506651587143,573
1506651587151,560
1506651587160,557
1506651587168,547
1506651587176,537
1506651587184,532
1506651587188,519
1506651587196,513
1506651587205,505
1506651587213,497
1506651587221,494
1506651587229,485
1506651587237,486
1506651587246,484
1506651587254,483
1506651587262,489
1506651587270,484
1506651587278,489
1506651587286,488
1506651587295,486
1506651587303,491
1506651587311,485
1506651587319,486
1506651587327,486
1506651587335,480
1506651587344,482
1506651587348,470
1506651587356,467
1506651587365,461
1506651587373,456
1506651587381,456
1506651587389,449
1506651587397,450
1506651587406,447
1506651587414,446
1506651587422,452
1506651587430,450
1506651587438,451
1506651587446,449
1506651587455,448
1506651587463,452
1506651587471,450
1506651587479,454
1506651587487,455
1506651587495,455
1506651587503,460
1506651587508,457
1506651587516,461
1506651587524,460
1506651587532,460
1506651587540,463
1506651587549,461
1506651587557,463
1506651587565,461
1506651587573,458
1506651587581,461
1506651587590,455
1506651587598,456
1506651587607,454
1506651587614,451
1506651587623,453
1506651587631,447
1506651587639,448
1506651587648,445
1506651587656,441
1506651587664,443
1506651587668,438
1506651587676,440
1506651587684,439
1506651587693,436
1506651587701,442
1506651587709,443
1506651587717,453
1506651587725,466
1506651587733,485
1506651587741,514
1506651587750,543
1506651587758,582
1506651587766,621
1506651587774,656
1506651587782,695
1506651587790,721
1506651587798,745
1506651587807,765
1506651587815,766
1506651587823,766
1506651587828,753
1506651587835,739
1506651587844,719
1506651587851,692
1506651587860,672
1506651587868,643
1506651587876,622
1506651587884,602
1506651587892,582
1506651587901,571
1506651587909,556
1506651587918,547
1506651587925,539
1506651587933,528
1506651587942,524
1506651587950,513
1506651587958,507
1506651587966,500
1506651587974,491
1506651587982,491
1506651587990,484
1506651587995,484
1506651588004,483
1506651588012,480
1506651588020,486
1506651588027,485
1506651588036,489
1506651588044,490
1506651588052,488
1506651588060,493
1506651588068,488
1506651588077,490
1506651588085,488
1506651588093,482
1506651588101,482
1506651588110,476
1506651588118,473
1506651588126,469
1506651588134,462
1506651588142,462
1506651588150,456
1506651588154,456
1506651588163,454
1506651588171,449
1506651588179,452
1506651588187,448
1506651588196,450
1506651588204,451
1506651588213,449
1506651588221,454
1506651588229,452
1506651588237,455
1506651588245,456
1506651588254,456
1506651588262,461
1506651588270,458
1506651588278,460
1506651588286,459
1506651588295,458
1506651588303,462
1506651588311,458
1506651588315,459
1506651588323,458
1506651588331,455
1506651588339,456
1506651588347,452
1506651588355,450
1506651588364,448
1506651588372,444
1506651588380,446
1506651588388,441
1506651588396,441
1506651588406,440
1506651588413,435
1506651588422,437
1506651588430,434
1506651588438,437
1506651588446,440
1506651588454,444
1506651588462,461
1506651588470,474
1506651588474,500
1506651588483,531
1506651588491,564
1506651588499,606
1506651588508,642
1506651588516,680
1506651588525,714
1506651588532,737
1506651588540,759
1506651588549,766
1506651588557,769
1506651588565,763
1506651588573,746
1506651588581,732
1506651588589,707
1506651588597,684
1506651588606,661
1506651588613,634
1506651588621,616
1506651588630,595
1506651588634,580
1506651588642,568
1506651588651,555
1506651588659,550
1506651588667,538
1506651588675,531
1506651588683,522
1506651588692,510
1506651588700,506
1506651588709,494
1506651588716,488
1506651588725,483
1506651588733,475
1506651588741,477
1506651588749,471
1506651588757,472
1506651588766,474
1506651588773,472
1506651588782,477
1506651588790,475
1506651588794,476
1506651588802,478
1506651588810,474
1506651588818,477
1506651588827,473
1506651588835,471
1506651588843,469
1506651588852,462
1506651588860,463
1506651588868,455
1506651588876,454
1506651588884,452
1506651588892,446
1506651588902,448
1506651588909,444
1506651588917,444
1506651588926,444
1506651588934,440
1506651588942,445
1506651588949,443
1506651588954,445
1506651588962,446
1506651588970,445
1506651588978,450
1506651588986,448
1506651588995,449
1506651589003,451
1506651589011,448
1506651589019,453
1506651589027,449
1506651589036,450
1506651589044,453
1506651589052,449
1506651589060,452
1506651589069,450
1506651589076,450
1506651589085,452
1506651589092,449
1506651589101,453
1506651589109,449
1506651589113,450
1506651589121,452
1506651589130,447
1506651589137,453
1506651589146,452
1506651589154,451
1506651589162,451
1506651589170,444
1506651589179,444
1506651589186,436
1506651589195,435
1506651589204,436
1506651589212,433
1506651589220,441
1506651589228,446
1506651589236,459
1506651589246,481
1506651589253,503
1506651589261,540
1506651589270,575
1506651589273,617
1506651589281,660
1506651589289,695
1506651589297,731
1506651589305,755
1506651589314,772
1506651589323,783
1506651589331,780
1506651589339,776
1506651589347,760
1506651589355,741
1506651589363,721
1506651589371,696
1506651589380,676
1506651589388,653
1506651589396,634
1506651589404,619
1506651589412,601
1506651589421,594
1506651589428,582
1506651589433,574
1506651589441,568
1506651589449,556
1506651589457,551
1506651589465,538
1506651589474,527
1506651589482,518
1506651589490,504
1506651589498,498
1506651589507,487
1506651589515,480
1506651589523,478
1506651589531,470
1506651589539,472
1506651589548,470
1506651589556,470
1506651589564,474
1506651589572,471
1506651589580,475
1506651589588,473
1506651589592,472
1506651589601,474
1506651589609,469
1506651589617,471
1506651589625,466
1506651589633,463
1506651589641,463
1506651589650,457
1506651589658,457
1506651589666,453
1506651589674,450
1506651589683,452
1506651589691,447
1506651589699,450
1506651589708,447
1506651589716,447
1506651589724,449
1506651589732,446
1506651589740,450
1506651589748,448
1506651589752,447
1506651589760,451
1506651589768,447
1506651589777,450
1506651589785,448
1506651589793,447
1506651589801,449
1506651589810,445
1506651589818,449
1506651589826,446
1506651589834,444
1506651589842,447
1506651589851,443
1506651589859,445
1506651589867,443
1506651589875,442
1506651589884,445
1506651589891,442
1506651589900,446
1506651589908,445
1506651589916,445
1506651589921,449
1506651589928,445
1506651589936,448
1506651589945,446
1506651589953,444
1506651589961,446
1506651589969,442
1506651589977,443
1506651589985,440
1506651589993,437
1506651590002,439
1506651590011,435
1506651590019,439
1506651590027,439
1506651590035,442
1506651590043,455
1506651590051,467
1506651590059,491
1506651590067,518
1506651590075,552
1506651590080,593
1506651590088,630
1506651590096,673
1506651590104,708
1506651590113,737
1506651590121,764
1506651590129,773
1506651590137,781
1506651590145,778
1506651590153,766
1506651590161,752
1506651590170,729
1506651590178,708
1506651590186,683
1506651590194,657
1506651590202,639
1506651590211,615
1506651590219,601
1506651590227,586
1506651590235,573
1506651590240,568
1506651590248,556
1506651590256,550
1506651590264,540
1506651590272,528
1506651590280,522
1506651590289,508
1506651590297,501
1506651590305,491
1506651590314,482
1506651590322,479
1506651590330,471
1506651590338,470
1506651590347,469
1506651590355,467
1506651590363,472
1506651590371,470
1506651590379,474
1506651590387,474
1506651590395,474
1506651590400,479
1506651590408,474
1506651590416,476
1506651590424,474
1506651590432,469
1506651590441,471
1506651590449,464
1506651590457,464
1506651590465,460
1506651590473,455
1506651590481,455
1506651590490,450
1506651590498,450
1506651590506,448
1506651590514,444
1506651590522,448
1506651590531,443
1506651590539,446
1506651590547,446
1506651590555,445
1506651590559,450
1506651590568,448
1506651590576,450
1506651590584,450
1506651590592,448
1506651590600,453
1506651590608,449
1506651590616,452
1506651590624,452
1506651590632,449
1506651590640,453
1506651590649,449
1506651590657,451
1506651590665,451
1506651590674,448
1506651590682,452
1506651590691,448
1506651590699,449
1506651590707,448
1506651590715,446
1506651590719,449
1506651590727,445
1506651590735,446
1506651590743,445
1506651590751,441
1506651590760,444
1506651590768,439
1506651590776,439
1506651590785,437
1506651590793,434
1506651590801,437
1506651590809,433
1506651590817,437
1506651590826,440
1506651590834,444
1506651590842,459
1506651590850,472
1506651590858,496
1506651590867,525
1506651590875,557
1506651590879,596
1506651590888,630
1506651590896,667
1506651590904,698
1506651590912,721
1506651590920,743
1506651590928,750
1506651590936,753
1506651590945,749
1506651590952,733
1506651590961,720
1506651590969,697
1506651590977,675
1506651590985,651
1506651590993,626
1506651591002,608
1506651591010,587
1506651591018,574
1506651591026,561
1506651591034,548
1506651591040,543
1506651591048,531
1506651591054,523
1506651591064,516
1506651591072,504
1506651591080,500
1506651591088,489
1506651591096,484
1506651591104,479
1506651591112,473
1506651591120,477
1506651591128,474
1506651591136,477
1506651591145,479
1506651591153,478
1506651591161,485
1506651591169,485
1506651591177,487
1506651591185,489
1506651591193,486
1506651591198,489
1506651591206,484
1506651591214,487
1506651591223,482
1506651591231,473
1506651591239,473
1506651591248,465
1506651591257,460
1506651591264,457
1506651591272,450
1506651591280,450
1506651591288,444
1506651591296,445
1506651591304,443
1506651591313,440
1506651591321,444
1506651591329,442
1506651591338,444
1506651591346,446
1506651591354,445
1506651591358,451
1506651591366,449
1506651591374,452
1506651591382,453
1506651591390,451
1506651591399,455
1506651591407,452
1506651591416,453
1506651591424,455
1506651591432,451
1506651591439,454
1506651591448,450
1506651591456,451
1506651591464,452
1506651591472,448
1506651591481,450
1506651591489,446
1506651591497,445
1506651591506,445
1506651591513,439
1506651591521,443
1506651591526,437
1506651591534,436
1506651591542,437
1506651591550,432
1506651591559,439
1506651591566,437
1506651591575,436
1506651591583,435
1506651591592,434
1506651591599,444
1506651591609,452
1506651591616,470
1506651591625,497
1506651591633,524
1506651591641,564
1506651591649,601
1506651591657,641
1506651591666,680
1506651591673,710
1506651591681,739
1506651591686,756
1506651591694,767
1506651591702,770
1506651591710,760
1506651591718,750
1506651591726,729
1506651591734,708
1506651591743,686
1506651591751,658
1506651591760,640
1506651591768,616
1506651591776,598
1506651591784,585
1506651591792,569
1506651591801,563
1506651591808,551
1506651591817,545
1506651591825,539
1506651591832,527
1506651591840,523
1506651591845,513
1506651591853,504
1506651591861,499
1506651591869,487
1506651591877,485
1506651591886,479
1506651591894,478
1506651591903,480
1506651591911,476
1506651591919,481
1506651591927,480
1506651591935,481
1506651591944,485
1506651591953,480
1506651591960,483
1506651591969,480
1506651591976,476
1506651591985,475
1506651591993,467
1506651592001,465
1506651592005,458
1506651592014,455
1506651592022,453
1506651592030,445
1506651592038,445
1506651592046,440
1506651592054,438
1506651592062,439
1506651592070,435
1506651592079,438
1506651592087,436
1506651592095,437
1506651592103,440
1506651592112,438
1506651592120,444
1506651592128,443
1506651592136,445
1506651592145,449
1506651592153,447
1506651592160,451
1506651592165,450
1506651592173,449
1506651592181,452
1506651592189,448
1506651592198,452
1506651592206,449
1506651592214,449
1506651592222,451
1506651592230,447
1506651592238,450
1506651592246,448
1506651592255,447
1506651592263,450
1506651592271,446
1506651592279,449
1506651592287,447
1506651592295,447
1506651592305,448
1506651592313,444
1506651592321,446
1506651592325,442
1506651592332,440
1506651592340,442
1506651592349,437
1506651592358,440
1506651592366,437
1506651592374,436
1506651592382,440
1506651592390,439
1506651592398,449
1506651592407,458
1506651592415,476
1506651592423,503
1506651592430,530
1506651592439,570
1506651592447,609
1506651592456,648
1506651592464,690
1506651592472,721
1506651592480,751
1506651592484,770
1506651592493,780
1506651592501,786
1506651592509,777
1506651592517,767
1506651592526,747
1506651592533,724
1506651592542,704
1506651592550,675
1506651592558,654
1506651592566,631
1506651592574,610
1506651592583,597
1506651592591,582
1506651592599,575
1506651592607,566
1506651592615,558
1506651592624,555
1506651592632,544
1506651592640,540
1506651592644,529
1506651592652,518
1506651592660,513
1506651592669,500
1506651592677,496
1506651592685,489
1506651592693,483
1506651592701,483
1506651592710,477
1506651592718,480
1506651592725,480
1506651592734,478
1506651592743,482
1506651592751,480
1506651592759,483
1506651592767,481
1506651592775,479
1506651592784,482
1506651592792,476
1506651592800,476
1506651592804,471
1506651592812,466
1506651592820,465
1506651592828,458
1506651592836,458
1506651592845,454
1506651592853,450
1506651592861,451
1506651592869,446
1506651592877,449
1506651592885,447
1506651592893,445
1506651592901,450
1506651592910,446
1506651592918,449
1506651592926,448
1506651592934,447
1506651592942,451
1506651592951,448
1506651592958,451
1506651592963,451
1506651592971,450
1506651592979,454
1506651592987,450
1506651592995,453
1506651593004,452
1506651593012,449
1506651593021,453
1506651593028,449
1506651593037,451
1506651593045,449
1506651593053,447
1506651593061,450
1506651593069,446
1506651593078,449
1506651593086,448
1506651593094,446
1506651593102,449
1506651593111,446
1506651593119,446
1506651593123,444
1506651593131,441
1506651593139,443
1506651593147,439
1506651593155,439
1506651593164,437
1506651593172,433
1506651593180,437
1506651593188,432
1506651593196,437
1506651593205,440
1506651593214,446
1506651593222,463
1506651593229,479
1506651593238,506
1506651593246,538
1506651593254,572
1506651593262,614
1506651593270,650
1506651593279,687
1506651593283,718
1506651593291,739
1506651593299,760
1506651593308,765
1506651593316,766
1506651593324,757
1506651593332,740
1506651593340,725
1506651593348,698
1506651593356,675
1506651593364,651
1506651593373,624
1506651593381,607
1506651593389,585
1506651593397,573
1506651593406,562
1506651593414,550
1506651593422,547
1506651593430,535
1506651593438,529
1506651593446,522
1506651593450,512
1506651593459,508
1506651593467,497
1506651593475,493
1506651593483,487
1506651593491,481
1506651593499,483
1506651593508,478
1506651593516,480
1506651593524,482
1506651593533,481
1506651593541,488
1506651593549,486
1506651593557,490
1506651593566,491
1506651593574,488
1506651593582,492
1506651593590,487
1506651593598,486
1506651593606,483
1506651593611,475
1506651593619,475
1506651593627,466
1506651593635,463
1506651593644,459
1506651593652,452
1506651593660,453
1506651593668,447
1506651593676,446
1506651593684,445
1506651593692,440
1506651593701,445
1506651593709,442
1506651593717,445
1506651593726,447
1506651593734,445
1506651593742,450
1506651593750,448
1506651593758,451
1506651593766,452
1506651593770,449
1506651593778,454
1506651593786,451
1506651593795,453
1506651593803,454
1506651593811,451
1506651593820,455
1506651593828,451
1506651593836,452
1506651593844,452
1506651593852,448
1506651593861,452
1506651593869,447
1506651593877,447
1506651593885,445
1506651593893,439
1506651593901,441
1506651593909,436
1506651593918,435
1506651593926,435
1506651593929,429
1506651593939,432
1506651593946,428
1506651593954,429
1506651593963,431
1506651593971,432
1506651593980,445
1506651593988,455
1506651593996,477
1506651594004,506
1506651594012,536
1506651594020,579
1506651594029,616
1506651594037,656
1506651594045,694
1506651594053,721
1506651594061,749
1506651594069,760
1506651594077,767
1506651594086,766
1506651594090,753
1506651594098,740
1506651594108,717
1506651594115,694
1506651594123,670
1506651594130,641
1506651594140,621
1506651594147,598
1506651594155,581
1506651594163,567
1506651594172,552
1506651594180,546
1506651594188,535
1506651594196,528
1506651594204,522
1506651594213,511
1506651594221,506
1506651594229,496
1506651594237,489
1506651594245,485
1506651594249,477
1506651594257,477
1506651594265,472
1506651594274,472
1506651594283,475
1506651594290,474
1506651594298,481
1506651594306,480
1506651594316,483
1506651594323,487
1506651594332,485
1506651594339,489
1506651594347,485
1506651594356,484
1506651594364,481
1506651594372,474
1506651594380,473
1506651594388,464
1506651594396,459
1506651594404,456
1506651594409,447
1506651594418,447
1506651594426,441
1506651594434,438
1506651594442,437
1506651594450,433
1506651594458,437
1506651594466,433
1506651594475,436
1506651594483,438
1506651594491,435
1506651594500,442
1506651594508,441
1506651594516,442
1506651594524,446
1506651594532,444
1506651594540,449
1506651594549,448
1506651594557,448
1506651594565,451
1506651594569,448
1506651594577,453
1506651594586,450
1506651594593,449
1506651594602,451
1506651594610,448
1506651594618,451
1506651594626,448
1506651594634,447
1506651594643,448
1506651594651,444
1506651594659,447
1506651594667,444
1506651594675,442
1506651594684,442
1506651594692,436
1506651594700,438
1506651594708,434
1506651594716,433
1506651594724,434
1506651594728,430
1506651594737,433
1506651594745,434
1506651594753,439
1506651594761,450
1506651594770,461
1506651594778,487
1506651594786,513
1506651594794,548
1506651594802,591
1506651594810,630
1506651594819,676
1506651594827,714
1506651594835,746
1506651594844,774
1506651594852,787
1506651594860,797
1506651594868,793
1506651594876,782
1506651594885,767
1506651594892,741
1506651594897,718
1506651594905,690
1506651594913,662
1506651594921,640
1506651594929,613
1506651594937,597
1506651594946,579
1506651594954,567
1506651594962,560
1506651594971,549
1506651594979,546
1506651594987,538
1506651594995,531
1506651595003,527
1506651595011,516
1506651595020,511
1506651595028,503
1506651595036,495
1506651595044,492
1506651595052,484
1506651595057,485
1506651595065,482
1506651595073,481
1506651595081,483
1506651595089,479
1506651595098,482
1506651595106,481
1506651595114,479
1506651595122,482
1506651595130,477
1506651595138,477
1506651595147,473
1506651595155,468
1506651595163,468
1506651595171,460
1506651595179,460
1506651595188,455
1506651595196,450
1506651595204,450
1506651595213,444
1506651595216,444
1506651595225,442
1506651595233,438
1506651595241,440
1506651595249,437
1506651595257,440
1506651595265,438
1506651595274,438
1506651595282,442
1506651595290,440
1506651595298,444
1506651595306,443
1506651595314,442
1506651595323,446
1506651595331,443
1506651595339,446
1506651595347,444
1506651595355,443
1506651595363,447
1506651595371,443
1506651595376,447
1506651595384,446
1506651595392,444
1506651595400,447
1506651595408,443
1506651595417,446
1506651595425,444
1506651595433,443
1506651595441,444
1506651595449,440
1506651595458,442
1506651595466,439
1506651595474,437
1506651595482,438
1506651595490,433
1506651595499,435
1506651595507,432
1506651595515,429
1506651595523,433
1506651595531,430
1506651595535,435
1506651595544,438
1506651595552,445
1506651595560,461
1506651595568,477
1506651595576,506
1506651595585,537
1506651595593,573
1506651595601,617
1506651595609,652
1506651595618,693
1506651595626,725
1506651595634,748
1506651595642,767
1506651595650,774
1506651595658,775
1506651595667,767
1506651595675,750
1506651595683,734
1506651595691,706
1506651595695,684
1506651595704,658
1506651595712,631
1506651595720,614
1506651595728,591
1506651595736,578
1506651595744,566
1506651595752,555
1506651595760,551
1506651595768,542
1506651595777,539
1506651595785,532
1506651595793,523
1506651595802,520
1506651595809,508
1506651595818,504
1506651595826,498
1506651595835,491
1506651595843,491
1506651595851,486
1506651595855,487
1506651595863,487
1506651595872,486
1506651595880,491
1506651595888,489
1506651595896,492
1506651595904,493
1506651595913,490
1506651595921,493
1506651595929,488
1506651595937,486
1506651595945,482
1506651595953,476
1506651595961,475
1506651595969,467
1506651595977,464
1506651595986,459
1506651595994,453
1506651596002,454
1506651596010,448
1506651596015,449
1506651596023,448
1506651596031,444
1506651596039,448
1506651596047,445
1506651596055,447
1506651596064,448
1506651596072,447
1506651596080,451
1506651596088,448
1506651596097,451
1506651596105,451
1506651596113,449
1506651596121,453
1506651596130,450
1506651596137,451
1506651596146,451
1506651596154,448
1506651596162,451
1506651596170,448
1506651596174,451
1506651596182,450
1506651596191,448
1506651596199,453
1506651596207,449
1506651596216,453
1506651596224,453
1506651596231,449
1506651596240,452
1506651596248,447
1506651596256,448
1506651596264,447
1506651596272,443
1506651596281,445
1506651596289,440
1506651596297,442
1506651596306,441
1506651596314,439
1506651596322,446
1506651596330,451
1506651596334,465
1506651596343,487
1506651596351,509
1506651596359,545
1506651596367,579
1506651596376,619
1506651596384,658
1506651596392,692
1506651596400,727
1506651596408,748
1506651596417,765
1506651596425,775
1506651596432,771
1506651596440,766
1506651596448,748
1506651596457,729
1506651596465,706
1506651596473,676
1506651596481,653
1506651596490,626
1506651596493,603
1506651596502,585
1506651596510,566
1506651596519,556
1506651596527,541
1506651596534,533
1506651596543,525
1506651596551,513
1506651596560,510
1506651596568,501
1506651596576,496
1506651596585,494
1506651596592,488
1506651596601,490
1506651596609,486
1506651596617,489
1506651596625,491
1506651596634,490
1506651596642,497
1506651596650,497
1506651596654,499
1506651596662,502
1506651596670,499
1506651596679,504
1506651596686,500
1506651596695,498
1506651596703,496
1506651596711,487
1506651596719,485
1506651596727,476
1506651596736,470
1506651596744,466
1506651596752,458
1506651596761,457
1506651596769,451
1506651596777,448
1506651596785,447
1506651596793,442
1506651596801,444
1506651596809,442
1506651596817,443
1506651596823,445
1506651596830,442
1506651596838,448
1506651596846,447
1506651596854,450
1506651596863,453
1506651596871,452
1506651596879,457
1506651596887,456
1506651596895,457
1506651596904,461
1506651596912,458
1506651596920,463
1506651596928,460
1506651596936,462
1506651596944,463
1506651596952,459
1506651596961,463
1506651596969,459
1506651596977,459
1506651596981,459
1506651596989,455
1506651596998,457
1506651597006,453
1506651597014,453
1506651597022,452
1506651597031,447
1506651597039,450
1506651597047,445
1506651597055,444
1506651597064,446
1506651597072,442
1506651597080,447
1506651597088,451
1506651597096,460
1506651597104,477
1506651597112,494
1506651597121,526
1506651597129,558
1506651597136,600
1506651597141,645
1506651597149,685
1506651597157,730
1506651597165,763
1506651597174,791
1506651597181,814
1506651597191,820
1506651597198,826
1506651597206,816
1506651597215,801
1506651597223,782
1506651597232,753
1506651597239,729
1506651597248,699
1506651597256,671
1506651597264,649
1506651597272,622
1506651597280,609
1506651597288,593
1506651597296,581
1506651597301,575
1506651597309,563
1506651597317,559
1506651597326,549
1506651597334,541
1506651597342,536
1506651597350,526
1506651597358,522
1506651597367,515
1506651597376,509
1506651597384,507
1506651597392,502
1506651597399,504
1506651597407,502
1506651597416,502
1506651597424,505
1506651597432,501
1506651597440,504
1506651597448,502
1506651597456,500
1506651597461,501
1506651597469,494
1506651597477,494
1506651597485,488
1506651597494,483
1506651597502,480
1506651597510,472
1506651597518,471
1506651597526,464
1506651597534,460
1506651597542,459
1506651597552,453
1506651597560,455
1506651597567,451
1506651597575,449
1506651597583,451
1506651597592,448
1506651597600,452
1506651597608,452
1506651597616,453
1506651597621,457
1506651597629,455
1506651597637,458
1506651597645,458
1506651597653,457
1506651597661,460
1506651597670,455
1506651597678,458
1506651597686,456
1506651597694,456
1506651597702,458
1506651597710,454
1506651597719,457
1506651597728,456
1506651597735,455
1506651597744,458
1506651597752,455
1506651597760,458
1506651597768,456
1506651597776,456
1506651597780,458
1506651597788,453
1506651597796,463
1506651597805,462
1506651597813,462
1506651597821,464
1506651597829,458
1506651597837,462
1506651597845,460
1506651597854,459
1506651597862,462
1506651597870,459
1506651597878,462
1506651597886,464
1506651597894,467
1506651597903,483
1506651597911,499
1506651597919,528
1506651597927,561
1506651597936,599
1506651597940,645
1506651597948,684
1506651597956,728
1506651597965,764
1506651597972,792
1506651597980,817
1506651597989,824
1506651597997,829
1506651598005,821
1506651598013,805
1506651598022,786
1506651598030,756
1506651598038,731
1506651598046,700
1506651598054,669
1506651598062,645
1506651598071,617
1506651598079,599
1506651598087,581
1506651598095,566
1506651598099,559
1506651598107,546
1506651598116,540
1506651598124,531
1506651598132,522
1506651598141,519
1506651598149,509
1506651598157,505
1506651598165,499
1506651598173,492
1506651598181,492
1506651598189,487
1506651598198,488
1506651598206,488
1506651598214,488
1506651598222,490
1506651598231,486
1506651598239,485
1506651598247,483
1506651598255,480
1506651598260,483
1506651598268,477
1506651598276,477
1506651598284,475
1506651598292,470
1506651598300,470
1506651598309,463
1506651598317,462
1506651598325,458
1506651598332,453
1506651598341,453
1506651598350,448
1506651598358,449
1506651598366,448
1506651598374,444
1506651598382,447
1506651598390,444
1506651598399,446
1506651598407,446
1506651598415,444
1506651598419,448
1506651598428,445
1506651598436,449
1506651598444,448
1506651598452,447
1506651598460,452
1506651598468,449
1506651598477,452
1506651598485,451
1506651598493,448
1506651598501,452
1506651598509,449
1506651598518,450
1506651598526,449
1506651598534,447
1506651598542,450
1506651598550,446
1506651598558,448
1506651598566,447
1506651598574,444
1506651598578,448
1506651598587,444
1506651598595,445
1506651598603,445
1506651598611,441
1506651598620,444
1506651598628,439
1506651598636,440
1506651598644,439
1506651598652,435
1506651598661,438
1506651598669,435
1506651598677,436
1506651598685,437
1506651598693,437
1506651598702,448
1506651598710,458
1506651598718,478
1506651598726,503
1506651598734,532
1506651598738,573
1506651598747,610
1506651598755,652
1506651598763,691
1506651598771,721
1506651598779,753
1506651598788,769
1506651598796,781
1506651598804,783
1506651598812,774
1506651598820,763
1506651598828,741
1506651598837,718
1506651598845,691
1506651598853,660
1506651598861,636
1506651598869,606
1506651598877,583
1506651598885,564
1506651598894,544
1506651598902,534
1506651598906,521
1506651598914,513
1506651598922,505
1506651598931,495
1506651598939,492
1506651598947,484
1506651598955,481
1506651598964,479
1506651598972,474
1506651598980,478
1506651598988,475
1506651598996,479
1506651599005,481
1506651599013,481
1506651599021,488
1506651599029,488
1506651599037,492
1506651599045,494
1506651599054,490
1506651599062,494
1506651599066,488
1506651599074,486
1506651599082,484
1506651599090,476
1506651599099,476
1506651599107,467
1506651599115,463
1506651599124,458
1506651599132,452
1506651599139,452
1506651599147,445
1506651599156,444
1506651599164,442
1506651599172,437
1506651599181,441
1506651599188,438
1506651599197,439
1506651599205,440
1506651599213,438
1506651599222,443
1506651599226,441
1506651599234,443
1506651599242,445
1506651599251,443
1506651599259,449
1506651599267,448
1506651599275,450
1506651599283,453
1506651599292,450
1506651599300,455
1506651599308,453
1506651599316,455
1506651599324,456
1506651599333,454
1506651599340,457
1506651599348,453
1506651599357,453
1506651599365,453
1506651599373,447
1506651599381,449
1506651599386,443
1506651599393,441
1506651599402,440
1506651599410,433
1506651599419,436
1506651599427,433
1506651599434,435
1506651599443,441
1506651599451,445
1506651599459,463
1506651599467,482
1506651599475,511
1506651599484,546
1506651599492,581
1506651599500,625
1506651599508,663
1506651599516,701
1506651599525,733
1506651599533,754
1506651599541,773
1506651599546,776
1506651599554,774
1506651599562,766
1506651599570,746
1506651599578,727
1506651599586,699
1506651599594,670
1506651599603,642
1506651599611,610
1506651599619,589
1506651599628,563
1506651599636,544
1506651599644,530
1506651599652,513
1506651599660,506
1506651599669,493
1506651599677,485
1506651599685,480
1506651599693,470
1506651599701,468
1506651599705,460
1506651599714,458
1506651599722,459
1506651599730,455
1506651599738,459
1506651599746,459
1506651599755,462
1506651599763,466
1506651599771,466
1506651599779,473
1506651599787,473
1506651599795,474
1506651599803,478
1506651599811,473
1506651599820,475
1506651599828,471
1506651599836,468
1506651599845,465
1506651599852,456
1506651599860,455
1506651599865,448
1506651599873,443
1506651599882,441
1506651599890,432
1506651599898,433
1506651599905,429
1506651599914,427
1506651599922,429
1506651599930,426
1506651599939,431
1506651599947,430
1506651599955,431
1506651599963,437
1506651599971,434
1506651599979,441
1506651599988,441
1506651599996,443
1506651600004,447
1506651600012,445
1506651600020,449
1506651600025,447
1506651600033,449
1506651600041,451
1506651600049,448
1506651600057,451
1506651600065,449
1506651600073,449
1506651600081,451
1506651600090,446
1506651600098,450
1506651600106,447
1506651600114,446
1506651600123,446
1506651600131,441
1506651600139,444
1506651600147,439
1506651600155,437
1506651600164,437
1506651600171,432
1506651600179,434
1506651600184,432
1506651600192,434
1506651600200,442
1506651600208,448
1506651600217,468
1506651600226,489
1506651600233,519
1506651600242,559
1506651600250,596
1506651600258,642
1506651600267,682
1506651600274,719
1506651600283,754
1506651600291,776
1506651600299,795
1506651600307,800
1506651600315,796
1506651600323,789
1506651600332,767
1506651600340,747
1506651600344,719
1506651600352,689
1506651600360,665
1506651600368,634
1506651600376,612
1506651600385,590
1506651600393,572
1506651600401,560
1506651600409,544
1506651600417,538
1506651600425,527
1506651600434,517
1506651600442,512
1506651600450,501
1506651600458,497
1506651600467,488
1506651600475,482
1506651600483,479
1506651600491,473
1506651600499,475
1506651600507,471
1506651600512,472
1506651600520,477
1506651600528,476
1506651600536,483
1506651600545,483
1506651600553,484
1506651600561,489
1506651600569,486
1506651600577,488
1506651600586,485
1506651600594,482
1506651600602,482
1506651600611,474
1506651600618,473
1506651600627,466
1506651600635,460
1506651600643,460
1506651600651,453
1506651600659,452
1506651600667,448
1506651600671,445
1506651600680,445
1506651600688,442
1506651600695,445
1506651600704,445
1506651600712,445
1506651600720,449
1506651600728,446
1506651600736,451
1506651600744,451
1506651600753,451
1506651600761,456
1506651600769,453
1506651600778,456
1506651600786,455
1506651600795,454
1506651600803,458
1506651600812,454
1506651600819,457
1506651600827,456
1506651600832,453
1506651600840,456
1506651600848,451
1506651600856,452
1506651600864,449
1506651600872,446
1506651600881,447
1506651600889,441
1506651600897,442
1506651600906,438
1506651600913,435
1506651600921,438
1506651600930,433
1506651600938,436
1506651600946,436
1506651600954,438
1506651600962,449
1506651600972,458
1506651600979,480
1506651600987,505
1506651600991,535
1506651600999,577
1506651601007,615
1506651601016,660
1506651601024,700
1506651601032,734
1506651601040,767
1506651601048,785
1506651601056,798
1506651601065,802
1506651601073,793
1506651601081,783
1506651601090,760
1506651601097,738
1506651601106,711
1506651601114,680
1506651601122,657
1506651601131,627
1506651601139,607
1506651601147,588
1506651601151,570
1506651601159,561
1506651601167,548
1506651601175,542
1506651601184,534
1506651601192,524
1506651601200,520
1506651601208,509
1506651601216,506
1506651601225,501
1506651601233,493
1506651601241,493
1506651601249,488
1506651601257,489
1506651601266,488
1506651601274,487
1506651601282,491
1506651601290,490
1506651601298,494
1506651601306,495
1506651601310,492
1506651601319,496
1506651601327,491
1506651601335,491
1506651601343,489
1506651601351,482
1506651601360,481
1506651601368,473
1506651601376,470
1506651601385,466
1506651601393,459
1506651601400,461
1506651601408,454
1506651601417,454
1506651601425,453
1506651601434,449
1506651601442,453
1506651601450,450
1506651601458,453
1506651601466,454
1506651601471,454
1506651601479,459
1506651601487,457
1506651601495,460
1506651601503,462
1506651601511,459
1506651601519,464
1506651601527,461
1506651601535,463
1506651601544,464
1506651601552,461
1506651601560,465
1506651601568,461
1506651601577,462
1506651601586,462
1506651601594,458
1506651601602,460
1506651601610,456
1506651601618,456
1506651601626,453
1506651601630,448
1506651601638,450
1506651601647,444
1506651601655,444
1506651601663,444
1506651601671,441
1506651601680,448
1506651601688,456
1506651601696,468
1506651601704,487
1506651601712,509
1506651601720,545
1506651601729,579
1506651601737,619
1506651601745,660
1506651601753,694
1506651601761,730
1506651601769,753
1506651601777,772
1506651601786,781
1506651601790,778
1506651601798,775
1506651601806,756
1506651601814,736
1506651601823,712
1506651601831,681
1506651601839,658
1506651601847,628
1506651601855,605
1506651601864,585
1506651601872,563
1506651601880,551
1506651601888,535
1506651601896,525
1506651601905,515
1506651601913,501
1506651601921,497
1506651601929,486
1506651601937,480
1506651601945,477
1506651601953,471
1506651601958,472
1506651601966,471
1506651601974,473
1506651601983,477
1506651601991,477
1506651601998,485
1506651602007,485
1506651602015,488
1506651602023,490
1506651602031,485
1506651602039,489
1506651602047,485
1506651602056,483
1506651602064,480
1506651602072,473
1506651602080,473
1506651602089,465
1506651602097,461
1506651602105,457
1506651602113,451
1506651602117,453
1506651602126,447
1506651602133,445
1506651602142,445
1506651602150,441
1506651602158,445
1506651602166,443
1506651602174,444
1506651602183,447
1506651602192,447
1506651602200,452
1506651602208,450
1506651602216,453
1506651602224,456
1506651602232,453
1506651602240,458
1506651602248,456
1506651602257,456
1506651602265,458
1506651602273,454
1506651602277,457
1506651602286,454
1506651602294,453
1506651602302,455
1506651602310,450
1506651602318,453
1506651602326,448
1506651602335,446
1506651602343,446
1506651602351,440
1506651602359,442
1506651602367,438
1506651602375,436
1506651602384,437
1506651602392,434
1506651602400,440
1506651602409,442
1506651602417,450
1506651602425,465
1506651602433,480
1506651602437,510
1506651602445,541
1506651602453,579
1506651602462,625
1506651602470,665
1506651602478,710
1506651602486,746
1506651602494,777
1506651602502,802
1506651602511,811
1506651602519,819
1506651602527,813
1506651602535,799
1506651602543,783
1506651602552,754
1506651602560,730
1506651602568,700
1506651602576,671
1506651602585,647
1506651602592,621
1506651602598,604
1506651602605,585
1506651602613,570
1506651602621,560
1506651602629,545
1506651602637,542
1506651602646,532
1506651602654,521
1506651602662,512
1506651602670,497
1506651602678,490
1506651602687,479
1506651602695,476
1506651602703,473
1506651602711,465
1506651602719,467
1506651602727,465
1506651602735,465
1506651602744,470
1506651602752,469
1506651602756,475
1506651602765,476
1506651602772,477
1506651602782,480
1506651602789,475
1506651602797,476
1506651602806,472
1506651602814,469
1506651602822,469
1506651602830,463
1506651602838,463
1506651602847,459
1506651602855,456
1506651602863,459
1506651602871,454
1506651602879,457
1506651602888,452
1506651602896,450
1506651602904,451
1506651602912,450
1506651602916,455
1506651602925,452
1506651602933,452
1506651602941,458
1506651602949,455
1506651602957,461
1506651602966,460
1506651602974,462
1506651602982,465
1506651602990,462
1506651602998,467
1506651603005,465
1506651603014,467
1506651603022,471
1506651603030,466
1506651603038,468
1506651603047,465
1506651603055,464
1506651603063,467
1506651603071,465
1506651603075,468
1506651603084,466
1506651603092,465
1506651603099,468
1506651603108,463
1506651603117,465
1506651603125,463
1506651603133,461
1506651603142,464
1506651603150,464
1506651603158,471
1506651603166,479
1506651603174,492
1506651603183,516
1506651603191,541
1506651603198,577
1506651603207,614
1506651603216,654
1506651603224,697
1506651603232,729
1506651603236,764
1506651603244,785
1506651603252,799
1506651603260,808
1506651603269,802
1506651603277,794
1506651603285,777
1506651603293,754
1506651603301,732
1506651603310,700
1506651603317,675
1506651603326,647
1506651603334,621
1506651603341,602
1506651603350,579
1506651603358,563
1506651603366,546
1506651603375,528
1506651603383,515
1506651603391,496
1506651603395,483
1506651603404,468
1506651603412,452
1506651603420,446
1506651603428,433
1506651603436,429
1506651603445,425
1506651603453,422
1506651603461,426
1506651603469,425
1506651603477,432
1506651603486,437
1506651603494,441
1506651603502,450
1506651603510,451
1506651603519,457
1506651603527,461
1506651603535,460
1506651603543,465
1506651603551,461
1506651603555,461
1506651603563,459
1506651603571,454
1506651603579,456
1506651603588,449
1506651603596,448
1506651603604,445
1506651603612,441
1506651603621,444
1506651603629,439
1506651603637,441
1506651603645,442
1506651603653,440
1506651603661,445
1506651603669,442
1506651603677,444
1506651603686,446
1506651603694,444
1506651603703,449
1506651603710,444
1506651603718,448
1506651603723,447
1506651603731,443
1506651603739,445
1506651603747,440
1506651603756,441
1506651603764,441
1506651603772,436
1506651603780,441
1506651603789,436
1506651603797,437
1506651603805,434
1506651603813,431
1506651603821,435
1506651603829,432
1506651603837,432
1506651603846,431
1506651603854,428
1506651603862,431
1506651603870,427
1506651603878,429
1506651603882,430
1506651603891,428
1506651603899,435
1506651603907,437
1506651603915,449
1506651603924,464
1506651603932,484
1506651603940,516
1506651603948,548
1506651603956,589
1506651603964,631
1506651603973,668
1506651603981,710
1506651603990,738
1506651603998,764
1506651604006,780
1506651604014,783
1506651604022,785
1506651604030,773
1506651604039,756
1506651604043,735
1506651604051,707
1506651604059,685
1506651604067,655
1506651604075,631
1506651604084,609
1506651604092,583
1506651604099,571
1506651604108,551
1506651604117,537
1506651604125,525
1506651604133,507
1506651604141,496
1506651604149,480
1506651604157,468
1506651604166,458
1506651604174,446
1506651604182,444
1506651604190,437
1506651604198,442
1506651604202,443
1506651604210,439
1506651604218,447
1506651604227,448
1506651604235,454
1506651604243,460
1506651604251,462
1506651604259,472
1506651604267,469
1506651604276,471
1506651604285,472
1506651604292,468
1506651604300,469
1506651604308,463
1506651604316,460
1506651604325,457
1506651604333,449
1506651604341,449
1506651604349,442
1506651604357,439
1506651604361,437
1506651604370,431
1506651604378,435
1506651604386,431
1506651604395,432
1506651604402,437
1506651604410,434
1506651604419,441
1506651604427,445
1506651604435,447
1506651604444,447
1506651604451,445
1506651604460,455
1506651604468,455
1506651604476,457
1506651604485,459
1506651604493,455
1506651604501,459
1506651604509,454
1506651604516,449
1506651604521,445
1506651604529,439
1506651604537,440
1506651604545,434
1506651604553,432
1506651604562,435
1506651604570,430
1506651604578,431
1506651604587,425
1506651604595,424
1506651604603,426
1506651604611,421
1506651604619,425
1506651604627,424
1506651604635,427
1506651604645,434
1506651604653,440
1506651604661,463
1506651604669,482
1506651604677,515
1506651604681,551
1506651604689,584
1506651604698,628
1506651604706,668
1506651604714,710
1506651604722,745
1506651604730,768
1506651604739,787
1506651604747,792
1506651604755,790
1506651604763,781
1506651604771,755
1506651604780,734
1506651604788,705
1506651604796,677
1506651604804,653
1506651604812,624
1506651604820,606
1506651604828,583
1506651604836,566
1506651604841,553
1506651604849,536
1506651604857,528
1506651604865,512
1506651604873,499
1506651604882,488
1506651604891,470
1506651604899,460
1506651604906,446
1506651604915,436
1506651604923,432
1506651604931,423
1506651604939,424
1506651604947,422
1506651604956,425
1506651604964,431
1506651604972,432
1506651604980,442
1506651604989,444
1506651604997,449
1506651605001,455
1506651605009,452
1506651605017,456
1506651605025,453
1506651605033,452
1506651605041,451
1506651605050,444
1506651605058,444
1506651605067,438
1506651605075,435
1506651605083,439
1506651605091,434
1506651605099,433
1506651605107,430
1506651605115,432
1506651605124,435
1506651605132,427
1506651605140,430
1506651605148,424
1506651605156,423
1506651605161,426
1506651605169,423
1506651605177,428
1506651605186,427
1506651605194,427
1506651605201,432
1506651605209,430
1506651605218,434
1506651605226,433
1506651605234,433
1506651605242,436
1506651605250,434
1506651605258,438
1506651605267,436
1506651605275,435
1506651605283,439
1506651605292,435
1506651605300,439
1506651605308,437
1506651605316,436
1506651605321,438
1506651605329,435
1506651605337,437
1506651605345,433
1506651605353,431
1506651605361,433
1506651605370,427
1506651605378,429
1506651605386,428
1506651605394,425
1506651605403,429
1506651605411,426
1506651605419,431
1506651605427,434
1506651605435,441
1506651605443,459
1506651605452,476
1506651605460,507
1506651605468,542
1506651605476,580
1506651605481,630
1506651605489,671
1506651605497,718
1506651605505,756
1506651605513,782
1506651605521,804
1506651605529,810
1506651605537,813
1506651605545,803
1506651605554,786
1506651605562,769
1506651605570,740
1506651605578,717
1506651605587,689
1506651605595,661
1506651605603,643
1506651605611,619
1506651605619,604
1506651605627,588
1506651605635,575
1506651605639,567
1506651605647,552
1506651605656,543
1506651605664,529
1506651605672,514
1506651605680,502
1506651605689,484
1506651605697,473
1506651605705,460
1506651605713,448
1506651605721,445
1506651605730,437
1506651605738,437
1506651605746,436
1506651605754,437
1506651605762,444
1506651605770,445
1506651605779,452
1506651605788,454
1506651605796,455
1506651605804,462
1506651605808,459
1506651605816,461
1506651605826,460
1506651605833,456
1506651605842,456
1506651605850,449
1506651605857,448
1506651605866,444
1506651605874,438
1506651605882,440
1506651605890,434
1506651605898,433
1506651605906,432
1506651605914,430
1506651605922,433
1506651605931,430
1506651605939,434
1506651605947,434
1506651605955,433
1506651605963,439
1506651605968,438
1506651605976,441
1506651605984,442
1506651605993,438
1506651606000,443
1506651606009,439
1506651606017,438
1506651606025,437
1506651606034,434
1506651606042,437
1506651606049,432
1506651606057,433
1506651606066,431
1506651606074,429
1506651606082,432
1506651606090,429
1506651606099,432
1506651606107,435
1506651606115,432
1506651606123,437
1506651606127,435
1506651606135,438
1506651606144,438
1506651606151,437
1506651606160,440
1506651606168,435
1506651606176,437
1506651606185,436
1506651606193,431
1506651606201,435
1506651606209,430
1506651606217,430
1506651606225,433
1506651606233,429
1506651606241,432
1506651606250,429
1506651606259,434
1506651606267,440
1506651606275,449
1506651606283,471
1506651606287,493
1506651606296,527
1506651606303,567
1506651606312,607
1506651606319,656
1506651606327,697
1506651606336,737
1506651606344,769
1506651606352,791
1506651606361,809
1506651606369,811
1506651606377,809
1506651606386,798
1506651606394,776
1506651606403,757
1506651606409,727
1506651606418,701
1506651606426,676
1506651606434,647
1506651606442,628
1506651606446,607
1506651606454,592
1506651606463,580
1506651606471,566
1506651606479,559
1506651606488,544
1506651606496,533
1506651606504,520
1506651606512,503
1506651606520,493
1506651606528,477
1506651606536,467
1506651606545,458
1506651606553,448
1506651606561,448
1506651606570,442
1506651606577,444
1506651606586,447
1506651606594,447
1506651606602,455
1506651606606,457
1506651606614,461
1506651606622,465
1506651606630,464
1506651606639,469
1506651606647,466
1506651606655,466
1506651606664,464
1506651606671,458
1506651606680,459
1506651606689,453
1506651606697,450
1506651606705,449
1506651606713,443
1506651606721,444
1506651606729,441
1506651606738,441
1506651606747,441
1506651606753,439
1506651606761,443
1506651606766,442
1506651606774,444
1506651606782,447
1506651606791,444
1506651606799,450
1506651606807,448
1506651606815,449
1506651606824,451
1506651606831,448
1506651606840,453
1506651606848,450
1506651606856,451
1506651606864,451
1506651606872,447
1506651606881,450
1506651606889,446
1506651606897,446
1506651606905,448
1506651606914,444
1506651606922,447
1506651606926,445
1506651606934,445
1506651606942,446
1506651606950,442
1506651606959,445
1506651606967,442
1506651606975,443
1506651606983,444
1506651606992,439
1506651607000,443
1506651607007,438
1506651607016,437
1506651607024,437
1506651607032,432
1506651607040,434
1506651607048,430
1506651607056,430
1506651607065,431
1506651607074,427
1506651607082,434
1506651607086,433
1506651607094,442
1506651607102,457
1506651607110,473
1506651607118,504
1506651607126,536
1506651607134,575
1506651607143,619
1506651607151,656
1506651607159,698
1506651607167,729
1506651607175,753
1506651607183,773
1506651607192,777
1506651607200,779
1506651607209,767
1506651607217,751
1506651607225,732
1506651607233,704
1506651607241,681
1506651607245,653
1506651607254,630
1506651607262,610
1506651607270,588
1506651607278,577
1506651607286,562
1506651607295,551
1506651607303,545
1506651607311,532
1506651607319,525
1506651607328,514
1506651607336,504
1506651607344,497
1506651607352,484
1506651607360,480
1506651607369,471
1506651607377,466
1506651607385,466
1506651607393,461
1506651607401,466
1506651607405,467
1506651607414,470
1506651607422,476
1506651607430,477
1506651607438,483
1506651607446,484
1506651607454,485
1506651607463,487
1506651607471,482
1506651607479,483
1506651607487,477
1506651607495,473
1506651607504,470
1506651607512,461
1506651607520,459
1506651607528,453
1506651607536,447
1506651607544,445
1506651607552,438
1506651607560,440
1506651607568,436
1506651607573,435
1506651607581,440
1506651607590,441
1506651607598,450
1506651607606,456
1506651607614,463
1506651607622,474
1506651607631,480
1506651607639,493
1506651607647,500
1506651607655,507
1506651607663,516
1506651607672,518
1506651607680,524
1506651607688,526
1506651607696,527
1506651607704,531
1506651607712,528
1506651607720,532
1506651607728,529
1506651607733,528
1506651607741,530
1506651607749,526
1506651607757,530
1506651607766,529
1506651607774,529
1506651607782,534
1506651607790,533
1506651607798,539
1506651607806,539
1506651607815,539
1506651607823,543
1506651607831,540
1506651607839,543
1506651607848,539
1506651607856,534
1506651607864,535
1506651607872,525
1506651607880,523
1506651607888,516
1506651607892,509
1506651607900,509
1506651607908,498
1506651607916,496
1506651607925,491
1506651607933,489
1506651607941,496
1506651607949,500
1506651607957,518
1506651607965,539
1506651607974,566
1506651607982,603
1506651607990,638
1506651607999,680
1506651608007,716
1506651608015,748
1506651608023,779
1506651608031,795
1506651608039,810
1506651608047,814
1506651608052,808
1506651608060,800
1506651608068,780
1506651608076,762
1506651608085,737
1506651608093,712
1506651608101,693
1506651608110,669
1506651608118,654
1506651608126,638
1506651608134,626
1506651608142,623
1506651608151,615
1506651608159,613
1506651608167,610
1506651608175,604
1506651608183,601
1506651608191,590
1506651608200,583
1506651608208,571
1506651608212,557
1506651608221,548
1506651608229,532
1506651608237,523
1506651608246,512
1506651608253,498
1506651608261,492
1506651608269,479
1506651608277,469
1506651608286,458
1506651608294,446
1506651608302,439
1506651608310,424
1506651608318,414
1506651608326,399
1506651608334,382
1506651608343,371
1506651608351,352
1506651608359,342
1506651608367,330
1506651608371,319
1506651608380,317
1506651608388,311
1506651608396,312
1506651608405,311
1506651608412,312
1506651608421,320
1506651608429,319
1506651608437,326
1506651608445,329
1506651608453,331
1506651608461,340
1506651608470,341
1506651608478,347
1506651608486,351
1506651608495,351
1506651608503,355
1506651608510,351
1506651608519,351
1506651608527,347
1506651608531,341
1506651608540,344
1506651608547,338
1506651608555,340
1506651608564,342
1506651608572,341
1506651608580,347
1506651608589,349
1506651608597,355
1506651608605,360
1506651608613,364
1506651608621,373
1506651608629,378
1506651608637,387
1506651608645,395
1506651608653,400
1506651608663,411
1506651608671,415
1506651608679,423
1506651608687,430
1506651608691,433
1506651608699,441
1506651608708,442
1506651608716,446
1506651608725,448
1506651608732,445
1506651608740,449
1506651608749,444
1506651608757,443
1506651608765,441
1506651608773,435
1506651608781,437
1506651608789,433
1506651608798,434
1506651608805,434
1506651608814,433
1506651608822,443
1506651608830,449
1506651608839,467
1506651608847,492
1506651608851,518
1506651608859,560
1506651608867,599
1506651608875,644
1506651608884,688
1506651608892,724
1506651608900,762
1506651608909,784
1506651608916,804
1506651608926,811
1506651608933,806
1506651608941,801
1506651608949,781
1506651608957,760
1506651608966,736
1506651608974,706
1506651608982,683
1506651608990,655
1506651608998,634
1506651609006,615
1506651609010,595
1506651609018,586
1506651609027,572
1506651609035,563
1506651609043,556
1506651609051,542
1506651609059,537
1506651609068,523
1506651609076,513
1506651609084,503
1506651609094,488
1506651609101,482
1506651609109,470
1506651609117,464
1506651609125,460
1506651609133,454
1506651609141,457
1506651609149,454
1506651609157,455
1506651609166,457
1506651609174,455
1506651609179,460
1506651609187,457
1506651609195,458
1506651609203,458
1506651609211,454
1506651609219,456
1506651609228,450
1506651609236,448
1506651609244,446
1506651609252,439
1506651609261,439
1506651609268,434
1506651609277,432
1506651609285,433
1506651609294,428
1506651609302,432
1506651609310,429
1506651609318,432
1506651609326,435
1506651609334,433
1506651609338,441
1506651609347,440
1506651609355,442
1506651609363,446
1506651609371,444
1506651609379,449
1506651609387,447
1506651609396,448
1506651609404,449
1506651609412,445
1506651609420,447
1506651609428,443
1506651609436,442
1506651609446,443
1506651609453,438
1506651609461,441
1506651609469,438
1506651609477,438
1506651609485,439
1506651609494,435
1506651609498,439
1506651609507,435
1506651609515,436
1506651609523,438
1506651609531,434
1506651609539,438
1506651609547,435
1506651609556,435
1506651609564,437
1506651609572,434
1506651609580,438
1506651609588,437
1506651609596,436
1506651609605,437
1506651609613,433
1506651609622,436
1506651609629,432
1506651609638,434
1506651609646,438
1506651609653,438
1506651609658,450
1506651609666,462
1506651609674,482
1506651609682,512
1506651609690,543
1506651609699,585
1506651609706,624
1506651609715,665
1506651609724,707
1506651609732,737
1506651609740,767
1506651609748,784
1506651609756,792
1506651609764,795
1506651609773,783
1506651609780,771
1506651609789,749
1506651609797,725
1506651609807,700
1506651609814,669
1506651609817,647
1506651609826,621
1506651609834,599
1506651609842,584
1506651609850,565
1506651609858,556
1506651609867,544
1506651609875,533
1506651609883,526
1506651609892,513
1506651609899,508
1506651609907,497
1506651609916,489
1506651609924,485
1506651609932,477
1506651609940,478
1506651609948,475
1506651609956,474
1506651609964,480
1506651609973,478
1506651609977,485
1506651609985,487
1506651609995,490
1506651610002,496
1506651610010,494
1506651610018,498
1506651610026,496
1506651610034,494
1506651610043,495
1506651610051,487
1506651610059,486
1506651610067,479
1506651610075,472
1506651610084,469
1506651610092,461
1506651610100,459
1506651610108,454
1506651610116,450
1506651610124,450
1506651610132,446
1506651610136,449
1506651610145,448
1506651610153,447
1506651610161,452
1506651610169,449
1506651610178,454
1506651610186,455
1506651610194,456
1506651610203,461
1506651610211,460
1506651610219,466
1506651610227,466
1506651610235,466
1506651610243,471
1506651610252,467
1506651610260,473
1506651610268,475
1506651610276,474
1506651610284,475
1506651610292,471
1506651610296,472
1506651610305,468
1506651610313,466
1506651610322,467
1506651610330,463
1506651610338,465
1506651610346,464
1506651610355,460
1506651610363,463
1506651610371,458
1506651610379,458
1506651610387,456
1506651610395,453
1506651610404,456
1506651610412,452
1506651610420,454
1506651610428,453
1506651610436,453
1506651610445,459
1506651610452,460
1506651610457,472
1506651610465,485
1506651610473,503
1506651610481,534
1506651610490,565
1506651610498,607
1506651610506,649
1506651610514,692
1506651610522,738
1506651610530,774
1506651610538,808
1506651610547,831
1506651610555,843
1506651610563,852
1506651610571,844
1506651610579,831
1506651610588,812
1506651610596,783
1506651610604,759
1506651610612,727
1506651610616,700
1506651610625,672
1506651610633,646
1506651610641,630
1506651610649,609
1506651610657,599
1506651610665,589
1506651610673,577
1506651610681,573
1506651610690,562
1506651610698,555
1506651610706,546
1506651610715,534
1506651610723,529
1506651610731,517
1506651610739,512
1506651610748,504
1506651610756,496
1506651610764,497
1506651610772,491
1506651610780,492
1506651610784,493
1506651610792,491
1506651610801,496
1506651610809,494
1506651610817,496
1506651610825,496
1506651610833,493
1506651610841,495
1506651610849,489
1506651610857,488
1506651610866,484
1506651610874,478
1506651610882,477
1506651610890,469
1506651610899,467
1506651610907,463
1506651610915,457
1506651610923,458
1506651610931,452
1506651610939,453
1506651610944,452
1506651610952,448
1506651610960,453
1506651610968,451
1506651610976,455
1506651610984,457
1506651610993,457
1506651611001,462
1506651611009,462
1506651611017,466
1506651611025,467
1506651611034,466
1506651611042,471
1506651611050,468
1506651611058,471
1506651611066,471
1506651611074,468
1506651611083,472
1506651611091,468
1506651611099,469
1506651611104,469
1506651611112,466
1506651611120,468
1506651611128,464
1506651611136,465
1506651611145,464
1506651611152,460
1506651611160,462
1506651611169,457
1506651611177,457
1506651611185,456
1506651611194,452
1506651611202,453
1506651611210,449
1506651611218,449
1506651611227,449
1506651611235,445
1506651611243,449
1506651611251,447
1506651611259,452
1506651611264,460
1506651611272,469
1506651611280,492
1506651611288,515
1506651611296,552
1506651611305,593
1506651611312,635
1506651611320,686
1506651611328,729
1506651611336,773
1506651611345,811
1506651611353,835
1506651611362,857
1506651611370,862
1506651611378,861
1506651611386,851
1506651611395,828
1506651611403,807
1506651611411,776
1506651611419,746
1506651611423,718
1506651611432,686
1506651611440,664
1506651611448,639
1506651611456,621
1506651611464,607
1506651611472,591
1506651611480,583
1506651611489,571
1506651611497,560
1506651611505,551
1506651611513,536
1506651611521,529
1506651611529,515
1506651611537,505
1506651611546,498
1506651611554,487
1506651611562,485
1506651611571,479
1506651611579,479
1506651611583,480
1506651611591,479
1506651611600,484
1506651611609,484
1506651611615,488
1506651611624,492
1506651611633,490
1506651611640,494
1506651611649,492
1506651611656,491
1506651611664,491
1506651611672,484
1506651611681,485
1506651611689,478
1506651611698,474
1506651611706,473
1506651611714,464
1506651611722,467
1506651611730,461
1506651611738,460
1506651611743,460
1506651611751,456
1506651611759,459
1506651611767,456
1506651611776,457
1506651611784,460
1506651611792,458
1506651611800,463
1506651611809,461
1506651611816,463
1506651611825,466
1506651611833,462
1506651611841,465
1506651611849,463
1506651611857,463
1506651611865,464
1506651611873,460
1506651611882,463
1506651611890,460
1506651611898,461
1506651611902,463
1506651611911,459
1506651611919,462
1506651611927,460
1506651611935,460
1506651611944,462
1506651611953,457
1506651611960,461
1506651611969,456
1506651611976,456
1506651611985,456
1506651611993,450
1506651612001,453
1506651612009,449
1506651612017,448
1506651612025,451
1506651612033,448
1506651612041,455
1506651612049,460
1506651612057,472
1506651612061,494
1506651612071,516
1506651612079,555
1506651612087,591
1506651612095,635
1506651612103,681
1506651612111,719
1506651612119,759
1506651612127,788
1506651612136,808
1506651612144,822
1506651612152,821
1506651612161,817
1506651612168,800
1506651612176,778
1506651612185,755
1506651612193,722
1506651612201,697
1506651612209,667
1506651612218,639
1506651612222,619
1506651612230,594
1506651612238,581
1506651612246,566
1506651612255,553
1506651612263,545
1506651612271,530
1506651612279,522
1506651612287,510
1506651612296,500
1506651612304,494
1506651612313,481
1506651612320,479
1506651612329,472
1506651612337,469
1506651612345,471
1506651612353,468
1506651612361,473
1506651612369,475
1506651612377,478
1506651612381,484
1506651612389,483
1506651612398,488
1506651612406,486
1506651612414,485
1506651612423,486
1506651612431,480
1506651612439,480
1506651612447,474
1506651612455,468
1506651612463,466
1506651612471,457
1506651612480,457
1506651612488,450
1506651612497,445
1506651612505,446
1506651612513,439
1506651612521,441
1506651612529,439
1506651612537,439
1506651612545,444
1506651612550,442
1506651612558,447
1506651612566,447
1506651612574,449
1506651612582,454
1506651612591,451
1506651612599,455
1506651612607,454
1506651612615,453
1506651612623,458
1506651612632,453
1506651612640,455
1506651612648,453
1506651612656,451
1506651612664,454
1506651612672,449
1506651612681,451
1506651612689,448
1506651612697,446
1506651612705,448
1506651612709,443
1506651612717,444
1506651612726,441
1506651612734,438
1506651612742,440
1506651612750,435
1506651612758,436
1506651612767,434
1506651612774,431
1506651612783,433
1506651612791,430
1506651612800,433
1506651612808,434
1506651612815,438
1506651612824,452
1506651612832,464
1506651612840,490
1506651612848,520
1506651612856,556
1506651612864,602
1506651612868,641
1506651612877,688
1506651612885,729
1506651612893,762
1506651612901,794
1506651612910,808
1506651612917,819
1506651612926,817
1506651612934,805
1506651612942,792
1506651612950,765
1506651612958,740
1506651612967,711
1506651612975,681
1506651612983,657
1506651612991,628
1506651613000,609
1506651613008,589
1506651613016,571
1506651613024,562
1506651613028,546
1506651613036,536
1506651613045,525
1506651613053,511
1506651613061,503
1506651613069,489
1506651613077,479
1506651613086,468
1506651613094,457
1506651613103,455
1506651613111,447
1506651613119,448
1506651613127,447
1506651613135,445
1506651613144,452
1506651613152,453
1506651613160,458
1506651613168,461
1506651613176,462
1506651613184,468
1506651613188,465
1506651613197,466
1506651613205,465
1506651613212,460
1506651613221,461
1506651613230,454
1506651613238,453
1506651613246,450
1506651613254,443
1506651613262,445
1506651613270,439
1506651613279,441
1506651613287,438
1506651613295,434
1506651613303,437
1506651613311,433
1506651613320,434
1506651613328,435
1506651613336,433
1506651613344,439
1506651613348,437
1506651613356,441
1506651613365,441
1506651613373,441
1506651613381,446
1506651613389,443
1506651613397,446
1506651613406,447
1506651613414,443
1506651613422,447
1506651613430,444
1506651613438,445
1506651613447,446
1506651613455,442
1506651613463,445
1506651613471,442
1506651613479,443
1506651613488,442
1506651613495,438
1506651613504,441
1506651613508,436
1506651613516,436
1506651613525,435
1506651613533,431
1506651613541,433
1506651613549,430
1506651613557,430
1506651613565,429
1506651613574,426
1506651613582,431
1506651613590,427
1506651613598,430
1506651613606,433
1506651613614,435
1506651613623,446
1506651613631,456
1506651613639,475
1506651613647,502
1506651613655,530
1506651613663,572
1506651613667,611
1506651613676,655
1506651613684,698
1506651613692,732
1506651613700,767
1506651613708,786
1506651613717,801
1506651613725,807
1506651613733,798
1506651613741,791
1506651613750,769
1506651613758,746
1506651613766,721
1506651613774,691
1506651613782,669
1506651613790,642
1506651613799,621
1506651613807,603
1506651613815,584
1506651613823,576
1506651613828,562
1506651613836,553
1506651613844,546
1506651613852,532
1506651613860,525
1506651613868,510
1506651613876,499
1506651613885,488
1506651613893,474
1506651613901,467
1506651613909,456
1506651613918,451
1506651613926,450
1506651613934,445
1506651613942,450
1506651613950,449
1506651613959,453
1506651613967,458
1506651613975,458
1506651613983,465
1506651613987,465
1506651613997,469
1506651614004,471
1506651614012,466
1506651614020,470
1506651614028,464
1506651614036,462
1506651614044,461
1506651614052,454
1506651614061,454
1506651614069,449
1506651614077,447
1506651614085,446
1506651614093,441
1506651614102,444
1506651614110,440
1506651614118,441
1506651614126,443
1506651614134,440
1506651614142,445
1506651614147,443
1506651614155,446
1506651614164,450
1506651614171,448
1506651614179,453
1506651614188,451
1506651614196,452
1506651614205,453
1506651614212,449
1506651614220,453
1506651614229,450
1506651614237,449
1506651614245,450
1506651614253,446
1506651614261,448
1506651614270,445
1506651614278,443
1506651614286,446
1506651614294,441
1506651614302,446
1506651614311,442
1506651614316,442
1506651614324,445
1506651614332,440
1506651614340,445
1506651614348,443
1506651614356,442
1506651614364,444
1506651614372,439
1506651614380,442
1506651614389,439
1506651614397,438
1506651614405,439
1506651614413,434
1506651614421,436
1506651614430,433
1506651614438,432
1506651614446,437
1506651614454,438
1506651614462,453
1506651614470,468
1506651614475,493
1506651614484,528
1506651614492,561
1506651614499,607
1506651614507,647
1506651614515,688
1506651614523,729
1506651614531,756
1506651614539,782
1506651614547,793
1506651614556,797
1506651614564,794
1506651614572,778
1506651614580,762
1506651614588,737
1506651614597,711
1506651614606,687
1506651614613,656
1506651614621,635
1506651614629,611
1506651614633,592
1506651614642,580
1506651614650,563
1506651614658,555
1506651614666,543
1506651614674,531
1506651614683,523
1506651614691,507
1506651614699,499
1506651614708,486
1506651614716,475
1506651614724,470
1506651614732,459
1506651614740,459
1506651614748,456
1506651614756,455
1506651614765,461
1506651614773,461
1506651614781,467
1506651614789,469
1506651614793,472
1506651614802,477
1506651614810,475
1506651614818,479
1506651614826,476
1506651614834,473
1506651614842,474
1506651614852,467
1506651614859,465
1506651614867,460
1506651614875,453
1506651614884,452
1506651614892,444
1506651614900,444
1506651614909,438
1506651614917,435
1506651614925,437
1506651614933,432
1506651614941,435
1506651614949,434
1506651614953,434
1506651614962,438
1506651614970,437
1506651614978,441
1506651614986,442
1506651614994,443
1506651615003,447
1506651615011,444
1506651615019,448
1506651615028,448
1506651615036,446
1506651615044,451
1506651615052,448
1506651615060,451
1506651615068,451
1506651615077,448
1506651615086,453
1506651615093,448
1506651615101,451
1506651615109,450
1506651615114,448
1506651615122,451
1506651615130,445
1506651615138,448
1506651615146,446
1506651615154,443
1506651615162,445
1506651615171,440
1506651615179,442
1506651615187,439
1506651615195,436
1506651615203,437
1506651615213,432
1506651615220,434
1506651615228,433
1506651615236,433
1506651615244,437
1506651615252,437
1506651615261,448
1506651615269,460
1506651615273,476
1506651615281,506
1506651615289,534
1506651615297,574
1506651615306,615
1506651615313,656
1506651615321,701
1506651615330,733
1506651615338,765
1506651615346,785
1506651615354,795
1506651615362,801
1506651615371,792
1506651615379,780
1506651615387,760
1506651615395,733
1506651615404,712
1506651615412,683
1506651615420,659
1506651615428,635
1506651615432,612
1506651615441,598
1506651615449,578
1506651615457,568
1506651615466,556
1506651615474,543
1506651615482,536
1506651615490,521
1506651615498,512
1506651615507,500
1506651615515,486
1506651615523,480
1506651615531,466
1506651615539,461
1506651615548,456
1506651615556,451
1506651615565,454
1506651615572,450
1506651615581,454
1506651615589,456
1506651615593,456
1506651615601,462
1506651615609,460
1506651615618,463
1506651615626,463
1506651615634,460
1506651615642,462
1506651615650,456
1506651615658,455
1506651615666,451
1506651615675,446
1506651615683,446
1506651615691,439
1506651615699,438
1506651615707,435
1506651615715,430
1506651615723,432
1506651615732,428
1506651615740,429
1506651615749,430
1506651615752,428
1506651615760,433
1506651615769,430
1506651615777,434
1506651615785,436
1506651615793,436
1506651615802,441
1506651615810,440
1506651615818,443
1506651615826,445
1506651615834,443
1506651615842,447
1506651615851,445
1506651615859,446
1506651615867,446
1506651615875,442
1506651615883,445
1506651615892,441
1506651615900,441
1506651615908,442
1506651615912,438
1506651615920,442
1506651615928,437
1506651615936,437
1506651615945,437
1506651615953,433
1506651615961,436
1506651615969,433
1506651615977,434
1506651615986,435
1506651615994,431
1506651616002,435
1506651616011,431
1506651616018,431
1506651616026,432
1506651616035,428
1506651616043,432
1506651616051,428
1506651616059,429
1506651616067,430
1506651616076,427
1506651616080,433
1506651616088,433
1506651616097,439
1506651616105,450
1506651616113,461
1506651616121,485
1506651616129,510
1506651616137,546
1506651616145,587
1506651616153,627
1506651616162,675
1506651616170,712
1506651616179,748
1506651616187,777
1506651616195,793
1506651616203,807
1506651616211,805
1506651616219,798
1506651616227,783
1506651616235,759
1506651616240,738
1506651616248,707
1506651616256,681
1506651616264,656
1506651616272,629
1506651616280,613
1506651616289,593
1506651616297,579
1506651616306,570
1506651616313,558
1506651616322,552
1506651616330,541
1506651616338,531
1506651616347,522
1506651616354,505
1506651616363,496
1506651616371,481
1506651616379,468
1506651616387,459
1506651616395,447
1506651616399,445
1506651616407,439
1506651616416,436
1506651616424,438
1506651616432,436
1506651616441,443
1506651616448,442
1506651616457,446
1506651616465,451
1506651616473,449
1506651616481,453
1506651616489,450
1506651616497,448
1506651616507,449
1506651616514,442
1506651616522,443
1506651616530,437
1506651616539,434
1506651616547,433
1506651616555,428
1506651616559,430
1506651616567,426
1506651616575,425
1506651616584,426
1506651616592,422
1506651616600,426
1506651616609,425
1506651616616,426
1506651616624,429
1506651616633,427
1506651616641,431
1506651616649,431
1506651616657,433
1506651616665,436
1506651616674,434
1506651616682,439
1506651616690,438
1506651616698,439
1506651616707,442
1506651616715,438
1506651616719,440
1506651616727,437
1506651616735,436
1506651616744,438
1506651616752,434
1506651616760,437
1506651616768,435
1506651616776,435
1506651616785,438
1506651616792,434
1506651616801,439
1506651616809,437
1506651616817,437
1506651616825,440
1506651616834,437
1506651616842,440
1506651616850,436
1506651616858,436
1506651616867,438
1506651616874,432
1506651616879,435
1506651616887,431
1506651616895,429
1506651616903,430
1506651616912,424
1506651616919,426
1506651616927,423
1506651616936,424
1506651616944,429
1506651616952,432
1506651616961,448
1506651616968,465
1506651616976,490
1506651616985,526
1506651616993,559
1506651617002,604
1506651617010,644
1506651617018,682
1506651617026,720
1506651617034,744
1506651617038,766
1506651617047,774
1506651617054,774
1506651617063,770
1506651617071,750
1506651617079,733
1506651617087,707
1506651617095,679
1506651617104,656
1506651617112,626
1506651617120,605
1506651617128,583
1506651617136,564
1506651617145,554
1506651617153,539
1506651617161,532
1506651617169,521
1506651617177,510
1506651617185,504
1506651617194,489
1506651617198,482
1506651617207,471
1506651617215,460
1506651617223,456
1506651617231,446
1506651617239,444
1506651617247,439
1506651617255,438
1506651617264,443
1506651617272,441
1506651617280,447
1506651617288,449
1506651617296,450
1506651617305,457
1506651617313,455
1506651617321,459
1506651617330,459
1506651617338,456
1506651617346,459
1506651617354,452
1506651617358,453
1506651617366,448
1506651617374,444
1506651617382,443
1506651617391,435
1506651617399,436
1506651617407,432
1506651617415,428
1506651617424,431
1506651617432,427
1506651617440,430
1506651617448,429
1506651617456,428
1506651617465,433
1506651617473,430
1506651617481,434
1506651617489,435
1506651617497,434
1506651617505,440
1506651617514,437
1506651617517,440
1506651617526,441
1506651617534,440
1506651617542,444
1506651617550,440
1506651617559,443
1506651617566,443
1506651617575,441
1506651617583,445
1506651617591,441
1506651617599,443
1506651617608,443
1506651617616,439
1506651617624,444
1506651617632,440
1506651617640,441
1506651617648,439
1506651617656,435
1506651617665,437
1506651617672,432
1506651617677,433
1506651617685,431
1506651617693,427
1506651617702,430
1506651617710,426
1506651617717,427
1506651617726,427
1506651617734,425
1506651617743,431
1506651617750,434
1506651617758,446
1506651617767,461
1506651617775,481
1506651617783,514
1506651617791,546
1506651617799,587
1506651617808,629
1506651617816,667
1506651617824,708
1506651617832,736
1506651617840,761
1506651617844,776
1506651617853,779
1506651617861,780
1506651617869,766
1506651617877,751
1506651617886,729
1506651617894,700
1506651617902,678
1506651617911,648
1506651617919,624
1506651617927,602
1506651617935,579
1506651617943,567
1506651617951,550
1506651617959,541
1506651617967,531
1506651617976,519
1506651617984,515
1506651617992,502
1506651618000,495
1506651618005,486
1506651618013,474
1506651618022,470
1506651618030,460
1506651618038,457
1506651618046,454
1506651618054,450
1506651618062,455
1506651618070,453
1506651618079,458
1506651618087,460
1506651618095,460
1506651618105,467
1506651618112,466
1506651618120,470
1506651618128,471
1506651618136,468
1506651618145,470
1506651618152,464
1506651618160,463
1506651618165,460
1506651618173,453
1506651618181,453
1506651618189,445
1506651618197,443
1506651618206,440
1506651618214,434
1506651618222,437
1506651618231,433
1506651618239,433
1506651618247,435
1506651618255,432
1506651618264,437
1506651618272,435
1506651618280,439
1506651618288,441
1506651618296,439
1506651618305,444
1506651618313,442
1506651618320,444
1506651618324,446
1506651618332,443
1506651618340,447
1506651618349,445
1506651618357,446
1506651618365,446
1506651618373,442
1506651618381,446
1506651618390,443
1506651618398,443
1506651618407,444
1506651618415,439
1506651618422,443
1506651618430,439
1506651618438,441
1506651618447,441
1506651618455,438
1506651618463,442
1506651618472,439
1506651618480,440
1506651618484,441
1506651618493,437
1506651618501,441
1506651618509,437
1506651618517,437
1506651618526,438
1506651618533,433
1506651618542,436
1506651618550,433
1506651618558,433
1506651618566,435
1506651618574,432
1506651618582,439
1506651618591,443
1506651618599,456
1506651618607,476
1506651618615,497
1506651618623,532
1506651618632,569
1506651618640,612
1506651618644,658
1506651618652,698
1506651618660,741
1506651618669,770
1506651618677,794
1506651618685,810
1506651618693,811
1506651618702,812
1506651618710,796
1506651618717,777
1506651618725,758
1506651618734,727
1506651618742,704
1506651618751,674
1506651618759,649
1506651618767,629
1506651618775,608
1506651618783,596
1506651618791,581
1506651618799,572
1506651618804,566
1506651618812,553
1506651618820,547
1506651618828,536
1506651618836,525
1506651618844,515
1506651618852,501
1506651618861,494
1506651618869,481
1506651618877,472
1506651618885,467
1506651618893,458
1506651618902,460
1506651618910,455
1506651618919,456
1506651618927,460
1506651618935,457
1506651618943,462
1506651618951,461
1506651618959,461
1506651618964,464
1506651618972,460
1506651618980,461
1506651618988,457
1506651618996,455
1506651619005,455
1506651619013,446
1506651619021,447
1506651619029,441
1506651619037,438
1506651619046,439
1506651619054,434
1506651619062,436
1506651619070,433
1506651619078,432
1506651619087,434
1506651619095,432
1506651619103,436
1506651619111,436
1506651619119,436
1506651619123,441
1506651619131,438
1506651619140,443
1506651619148,442
1506651619156,444
1506651619164,447
1506651619172,444
1506651619180,448
1506651619188,446
1506651619197,446
1506651619205,448
1506651619213,445
1506651619221,448
1506651619230,445
1506651619238,444
1506651619246,446
1506651619254,441
1506651619263,444
1506651619271,442
1506651619279,440
1506651619283,443
1506651619291,440
1506651619299,443
1506651619308,441
1506651619316,440
1506651619325,442
1506651619332,438
1506651619341,441
1506651619349,440
1506651619357,438
1506651619365,440
1506651619373,436
1506651619381,438
1506651619390,436
1506651619398,435
1506651619406,438
1506651619414,434
1506651619422,438
1506651619430,439
1506651619438,442
1506651619442,455
1506651619451,465
1506651619459,491
1506651619467,517
1506651619476,552
1506651619484,595
1506651619492,635
1506651619500,679
1506651619508,717
1506651619516,748
1506651619525,777
1506651619533,789
1506651619541,799
1506651619549,796
1506651619557,784
1506651619566,771
1506651619574,745
1506651619582,721
1506651619590,692
1506651619598,664
1506651619606,641
1506651619610,613
1506651619619,597
1506651619627,579
1506651619635,563
1506651619643,555
1506651619651,543
1506651619660,537
1506651619668,528
1506651619676,519
1506651619684,514
1506651619692,501
1506651619701,496
1506651619709,487
1506651619717,479
1506651619725,476
1506651619733,468
1506651619742,469
1506651619750,466
1506651619758,464
1506651619766,469
1506651619770,467
1506651619779,471
1506651619787,473
1506651619795,471
1506651619803,474
1506651619811,470
1506651619819,472
1506651619827,469
1506651619835,464
1506651619844,464
1506651619852,456
1506651619860,454
1506651619868,450
1506651619876,443
1506651619885,444
1506651619893,437
1506651619901,437
1506651619909,434
1506651619918,430
1506651619925,435
1506651619930,430
1506651619938,434
1506651619946,434
1506651619954,433
1506651619962,439
1506651619970,437
1506651619979,441
1506651619987,442
1506651619995,442
1506651620004,447
1506651620012,444
1506651620020,448
1506651620028,448
1506651620036,446
1506651620044,450
1506651620052,446
1506651620060,449
1506651620069,449
1506651620077,447
1506651620085,451
1506651620090,447
1506651620097,449
1506651620106,449
1506651620114,446
1506651620123,450
1506651620131,446
1506651620139,447
1506651620147,447
1506651620155,442
1506651620164,445
1506651620172,440
1506651620180,440
1506651620188,438
1506651620197,434
1506651620205,436
1506651620213,432
1506651620221,434
1506651620229,435
1506651620237,436
1506651620246,448
1506651620250,456
1506651620258,478
1506651620266,506
1506651620274,535
1506651620282,577
1506651620291,614
1506651620299,657
1506651620307,695
1506651620315,726
1506651620323,757
1506651620331,771
1506651620340,782
1506651620348,782
1506651620356,770
1506651620364,759
1506651620372,734
1506651620380,710
1506651620388,684
1506651620397,654
1506651620405,631
1506651620409,603
1506651620417,584
1506651620425,567
1506651620433,550
1506651620442,543
1506651620450,530
1506651620458,522
1506651620466,515
1506651620474,503
1506651620483,499
1506651620491,488
1506651620499,482
1506651620507,476
1506651620516,466
1506651620524,467
1506651620531,461
1506651620540,463
1506651620549,464
1506651620557,463
1506651620565,469
1506651620569,468
1506651620577,471
1506651620586,473
1506651620594,472
1506651620602,475
1506651620611,471
1506651620619,470
1506651620626,469
1506651620635,462
1506651620644,463
1506651620651,456
1506651620659,452
1506651620667,448
1506651620675,440
1506651620684,440
1506651620692,434
1506651620700,432
1506651620708,432
1506651620717,427
1506651620724,430
1506651620729,426
1506651620737,428
1506651620745,431
1506651620753,429
1506651620761,434
1506651620769,432
1506651620778,434
1506651620786,437
1506651620794,435
1506651620804,440
1506651620811,437
1506651620819,439
1506651620827,441
1506651620836,437
1506651620843,442
1506651620852,438
1506651620860,438
1506651620868,441
1506651620877,438
1506651620884,442
1506651620889,439
1506651620897,440
1506651620905,441
1506651620913,437
1506651620921,442
1506651620929,438
1506651620937,438
1506651620946,441
1506651620954,436
1506651620962,438
1506651620970,435
1506651620978,433
1506651620986,434
1506651620994,429
1506651621003,432
1506651621011,428
1506651621020,428
1506651621027,431
1506651621035,428
1506651621044,436
1506651621048,441
1506651621056,453
1506651621064,475
1506651621072,496
1506651621081,532
1506651621089,568
1506651621097,611
1506651621106,657
1506651621114,694
1506651621122,737
1506651621130,765
1506651621138,787
1506651621147,805
1506651621156,805
1506651621164,804
1506651621172,790
1506651621180,770
1506651621188,750
1506651621196,720
1506651621204,697
1506651621208,668
1506651621216,643
1506651621224,623
1506651621232,601
1506651621240,589
1506651621248,574
1506651621256,565
1506651621265,559
1506651621273,547
1506651621282,541
1506651621290,530
1506651621298,522
1506651621306,514
1506651621315,502
1506651621323,498
1506651621331,487
1506651621339,481
1506651621348,479
1506651621355,471
1506651621364,474
1506651621371,471
1506651621376,471
1506651621384,475
1506651621392,473
1506651621400,478
1506651621409,476
1506651621417,475
1506651621425,478
1506651621433,471
1506651621441,473
1506651621449,467
1506651621457,463
1506651621465,463
1506651621474,455
1506651621482,455
1506651621490,450
1506651621498,446
1506651621507,445
1506651621516,439
1506651621523,441
1506651621531,438
1506651621536,438
1506651621544,441
1506651621552,438
1506651621560,443
1506651621569,443
1506651621577,444
1506651621585,448
1506651621593,447
1506651621601,452
1506651621609,451
1506651621618,451
1506651621625,454
1506651621634,451
1506651621642,454
1506651621650,452
1506651621658,450
1506651621666,454
1506651621674,450
1506651621682,452
1506651621690,449
1506651621695,448
1506651621703,450
1506651621712,446
1506651621720,447
1506651621728,445
1506651621736,443
1506651621744,446
1506651621752,441
1506651621760,445
1506651621768,444
1506651621777,441
1506651621785,444
1506651621793,440
1506651621801,443
1506651621810,440
1506651621818,439
1506651621827,442
1506651621835,439
1506651621843,444
1506651621851,445
1506651621855,444
1506651621863,451
1506651621871,454
1506651621880,469
1506651621888,488
1506651621896,512
1506651621905,549
1506651621913,584
1506651621921,629
1506651621929,671
1506651621937,710
1506651621945,748
1506651621953,772
1506651621961,794
1506651621969,804
1506651621978,803
1506651621986,799
1506651621994,780
1506651622002,762
1506651622011,736
1506651622015,707
1506651622023,684
1506651622031,653
1506651622039,632
1506651622047,611
1506651622056,592
1506651622064,583
1506651622072,568
1506651622080,563
1506651622088,554
1506651622096,543
1506651622105,538
1506651622113,525
1506651622121,518
1506651622130,507
1506651622138,495
1506651622146,492
1506651622154,480
1506651622162,477
1506651622170,473
1506651622174,468
1506651622183,471
1506651622191,469
1506651622199,472
1506651622207,473
1506651622216,473
1506651622224,478
1506651622232,475
1506651622240,477
1506651622249,476
1506651622257,472
1506651622265,475
1506651622273,468
1506651622281,467
1506651622289,464
1506651622298,457
1506651622306,459
1506651622314,452
1506651622322,452
1506651622330,449
1506651622334,445
1506651622342,447
1506651622350,442
1506651622358,444
1506651622366,444
1506651622375,441
1506651622383,444
1506651622391,441
1506651622399,443
1506651622408,444
1506651622416,444
1506651622424,449
1506651622433,445
1506651622441,449
1506651622449,449
1506651622457,447
1506651622465,453
1506651622473,450
1506651622482,452
1506651622489,453
1506651622494,450
1506651622502,453
1506651622511,450
1506651622519,452
1506651622527,450
1506651622535,447
1506651622543,451
1506651622551,447
1506651622559,447
1506651622567,447
1506651622575,443
1506651622584,445
1506651622592,441
1506651622600,441
1506651622609,439
1506651622617,434
1506651622625,437
1506651622633,432
1506651622641,433
1506651622649,435
1506651622653,435
1506651622661,446
1506651622669,455
1506651622678,475
1506651622686,500
1506651622694,527
1506651622702,568
1506651622711,604
1506651622719,646
1506651622727,686
1506651622735,716
1506651622743,748
1506651622751,764
1506651622760,776
1506651622768,779
1506651622776,769
1506651622784,760
1506651622792,737
1506651622800,716
1506651622809,692
1506651622813,662
1506651622822,641
1506651622829,614
1506651622837,595
1506651622846,578
1506651622854,560
1506651622862,552
1506651622870,538
1506651622878,530
1506651622886,522
1506651622895,508
1506651622903,503
1506651622912,489
1506651622920,480
1506651622927,473
1506651622935,462
1506651622944,461
1506651622952,456
1506651622960,456
1506651622969,457
1506651622977,456
1506651622982,462
1506651622990,462
1506651622998,466
1506651623006,471
1506651623014,469
1506651623022,474
1506651623031,473
1506651623039,473
1506651623047,472
1506651623055,467
1506651623064,467
1506651623071,460
1506651623079,457
1506651623088,454
1506651623096,446
1506651623104,447
1506651623113,440
1506651623121,438
1506651623129,438
1506651623137,433
1506651623142,435
1506651623150,432
1506651623159,432
1506651623166,434
1506651623174,432
1506651623182,438
1506651623190,436
1506651623198,439
1506651623206,443
1506651623215,440
1506651623222,446
1506651623231,444
1506651623239,445
1506651623248,447
1506651623256,443
1506651623264,447
1506651623272,444
1506651623280,445
1506651623288,447
1506651623296,443
1506651623301,447
1506651623309,444
1506651623318,445
1506651623326,448
1506651623334,443
1506651623342,446
1506651623351,444
1506651623358,444
1506651623366,445
1506651623375,440
1506651623383,443
1506651623391,439
1506651623399,438
1506651623407,438
1506651623415,432
1506651623424,435
1506651623432,432
1506651623440,431
1506651623448,433
1506651623456,431
1506651623460,440
1506651623469,445
1506651623477,459
1506651623485,483
1506651623493,506
1506651623502,544
1506651623510,581
1506651623518,622
1506651623527,668
1506651623534,704
1506651623542,742
1506651623551,767
1506651623559,784
1506651623567,796
1506651623575,792
1506651623583,787
1506651623592,769
1506651623600,749
1506651623608,728
1506651623616,697
1506651623620,675
1506651623629,649
1506651623637,625
1506651623645,609
1506651623653,590
1506651623661,580
1506651623669,568
1506651623678,559
1506651623686,554
1506651623695,541
1506651623702,536
1506651623710,523
1506651623719,512
1506651623727,505
1506651623735,491
1506651623743,484
1506651623751,475
1506651623759,468
1506651623767,466
1506651623775,460
1506651623780,462
1506651623788,460
1506651623796,462
1506651623804,467
1506651623813,464
1506651623821,469
1506651623829,468
1506651623837,467
1506651623846,469
1506651623855,464
1506651623863,465
1506651623871,461
1506651623879,457
1506651623886,457
1506651623895,450
1506651623903,450
1506651623911,446
1506651623920,442
1506651623927,444
1506651623935,438
1506651623939,439
1506651623947,437
1506651623956,436
1506651623964,438
1506651623972,435
1506651623980,439
1506651623988,438
1506651623997,437
1506651624005,442
1506651624014,439
1506651624022,442
1506651624029,441
1506651624038,440
1506651624046,443
1506651624054,439
1506651624062,442
1506651624070,440
1506651624079,440
1506651624087,443
1506651624095,439
1506651624099,443
1506651624108,441
1506651624116,440
1506651624125,444
1506651624133,440
1506651624141,443
1506651624149,441
1506651624157,441
1506651624166,445
1506651624174,441
1506651624182,445
1506651624190,443
1506651624198,441
1506651624207,444
1506651624214,439
1506651624223,441
1506651624231,439
1506651624240,434
1506651624248,437
1506651624255,432
1506651624259,434
1506651624268,432
1506651624276,432
1506651624285,437
1506651624292,437
1506651624300,448
1506651624309,461
1506651624317,479
1506651624325,509
1506651624333,537
1506651624342,577
1506651624350,616
1506651624358,655
1506651624366,696
1506651624374,726
1506651624382,755
1506651624392,771
1506651624400,779
1506651624408,784
1506651624416,773
1506651624419,762
1506651624427,742
1506651624435,717
1506651624443,695
1506651624452,667
1506651624460,645
1506651624468,623
1506651624476,602
1506651624484,591
1506651624493,574
1506651624501,567
1506651624509,558
1506651624518,548
1506651624525,544
1506651624533,531
1506651624541,523
1506651624550,513
1506651624557,500
1506651624566,493
1506651624574,481
1506651624578,475
1506651624586,469
1506651624594,463
1506651624602,463
1506651624611,459
1506651624619,461
1506651624627,462
1506651624635,462
1506651624644,467
1506651624652,465
1506651624660,468
1506651624668,468
1506651624676,466
1506651624684,469
1506651624692,464
1506651624701,464
1506651624709,461
1506651624717,455
1506651624725,456
1506651624733,449
1506651624738,448
1506651624746,446
1506651624754,441
1506651624762,443
1506651624770,438
1506651624779,440
1506651624787,440
1506651624795,438
1506651624803,443
1506651624812,440
1506651624821,442
1506651624829,444
1506651624837,444
1506651624845,449
1506651624853,447
1506651624862,448
1506651624870,448
1506651624878,446
1506651624886,450
1506651624894,445
1506651624902,447
1506651624906,447
1506651624915,443
1506651624923,447
1506651624931,443
1506651624939,446
1506651624947,448
1506651624956,445
1506651624964,451
1506651624972,448
1506651624980,451
1506651624988,451
1506651624996,449
1506651625005,453
1506651625013,448
1506651625021,449
1506651625029,449
1506651625037,444
1506651625045,447
1506651625054,441
1506651625061,441
1506651625066,440
1506651625074,435
1506651625082,438
1506651625091,433
1506651625099,434
1506651625107,435
1506651625116,434
1506651625124,443
1506651625131,449
1506651625140,465
1506651625148,488
1506651625156,513
1506651625164,552
1506651625172,587
1506651625180,627
1506651625189,667
1506651625197,698
1506651625205,731
1506651625213,749
1506651625221,764
1506651625226,770
1506651625234,762
1506651625242,755
1506651625250,734
1506651625258,712
1506651625267,687
1506651625274,657
1506651625283,635
1506651625291,608
1506651625299,587
1506651625307,571
1506651625316,552
1506651625324,545
1506651625332,533
1506651625340,526
1506651625348,522
1506651625356,510
1506651625365,507
1506651625373,496
1506651625381,491
1506651625385,486
1506651625393,477
1506651625401,477
1506651625410,471
1506651625418,471
1506651625426,473
1506651625434,470
1506651625442,476
1506651625451,476
1506651625459,478
1506651625467,481
1506651625475,478
1506651625484,483
1506651625492,479
1506651625500,478
1506651625508,477
1506651625517,469
1506651625525,469
1506651625533,462
1506651625540,459
1506651625545,456
1506651625553,450
1506651625562,451
1506651625570,445
1506651625578,442
1506651625586,441
1506651625595,435
1506651625603,439
1506651625611,436
1506651625619,437
1506651625627,440
1506651625636,437
1506651625644,444
1506651625652,443
1506651625660,445
1506651625668,449
1506651625676,447
1506651625685,451
1506651625693,448
1506651625701,449
1506651625705,451
1506651625713,447
1506651625722,450
1506651625729,447
1506651625737,447
1506651625745,449
1506651625754,445
1506651625762,448
1506651625770,445
1506651625778,444
1506651625786,446
1506651625795,441
1506651625803,444
1506651625811,441
1506651625820,439
1506651625828,442
1506651625836,435
1506651625845,437
1506651625853,433
1506651625861,432
1506651625865,433
1506651625873,428
1506651625882,431
1506651625890,428
1506651625898,429
1506651625906,431
1506651625914,428
1506651625922,436
1506651625930,441
1506651625938,453
1506651625946,476
1506651625954,497
1506651625963,533
1506651625971,569
1506651625979,608
1506651625987,652
1506651625995,686
1506651626004,723
1506651626012,748
1506651626021,766
1506651626026,779
1506651626033,776
1506651626041,773
1506651626049,758
1506651626057,738
1506651626065,717
1506651626073,688
1506651626082,665
1506651626090,638
1506651626098,615
1506651626106,598
1506651626115,577
1506651626123,569
1506651626131,556
1506651626139,547
1506651626147,543
1506651626155,532
1506651626165,527
1506651626172,517
1506651626180,508
1506651626185,501
1506651626193,489
1506651626201,486
1506651626210,477
1506651626218,472
1506651626226,473
1506651626233,468
1506651626241,472
1506651626250,470
1506651626257,469
1506651626266,474
1506651626275,472
1506651626283,476
1506651626291,474
1506651626299,473
1506651626307,475
1506651626315,469
1506651626324,470
1506651626332,465
1506651626340,461
1506651626344,460
1506651626352,453
1506651626360,454
1506651626368,449
1506651626376,444
1506651626385,445
1506651626393,439
1506651626401,440
1506651626409,438
1506651626418,436
1506651626426,439
1506651626434,436
1506651626442,440
1506651626451,439
1506651626459,439
1506651626467,444
1506651626475,442
1506651626483,446
1506651626492,444
1506651626500,444
1506651626504,447
1506651626512,443
1506651626520,446
1506651626528,445
1506651626536,443
1506651626545,445
1506651626552,441
1506651626561,444
1506651626569,443
1506651626577,442
1506651626585,446
1506651626594,442
1506651626601,444
1506651626610,442
1506651626618,440
1506651626627,442
1506651626635,438
1506651626643,441
1506651626651,439
1506651626659,437
1506651626663,439
1506651626671,434
1506651626679,436
1506651626687,434
1506651626696,431
1506651626704,434
1506651626712,428
1506651626721,431
1506651626729,431
1506651626737,433
1506651626745,443
1506651626753,450
1506651626762,471
1506651626770,494
1506651626777,522
1506651626786,565
1506651626795,601
1506651626803,646
1506651626811,688
1506651626819,723
1506651626827,757
1506651626831,777
1506651626839,793
1506651626847,798
1506651626855,792
1506651626864,784
1506651626872,762
1506651626880,743
1506651626888,717
1506651626896,686
1506651626905,663
1506651626913,634
1506651626922,614
1506651626929,595
1506651626937,579
1506651626946,572
1506651626954,559
1506651626962,554
1506651626970,547
1506651626978,538
1506651626986,536
1506651626991,523
1506651627000,516
1506651627008,507
1506651627016,496
1506651627024,493
1506651627032,483
1506651627040,480
1506651627048,478
1506651627056,473
1506651627065,477
1506651627073,475
1506651627081,478
1506651627089,480
1506651627098,478
1506651627106,484
1506651627114,481
1506651627123,482
1506651627131,482
1506651627138,478
1506651627146,480
1506651627150,472
1506651627159,472
1506651627167,468
1506651627175,461
1506651627184,462
1506651627191,456
1506651627200,455
1506651627208,453
1506651627217,447
1506651627225,449
1506651627232,444
1506651627241,446
1506651627249,446
1506651627257,444
1506651627265,448
1506651627273,446
1506651627282,448
1506651627289,450
1506651627299,450
1506651627307,452
1506651627311,450
1506651627319,453
1506651627327,452
1506651627335,449
1506651627343,453
1506651627351,448
1506651627359,449
1506651627367,450
1506651627376,446
1506651627384,450
1506651627392,446
1506651627400,447
1506651627408,448
1506651627417,444
1506651627426,447
1506651627433,443
1506651627441,444
1506651627449,445
1506651627458,441
1506651627466,444
1506651627470,439
1506651627478,438
1506651627487,439
1506651627495,432
1506651627503,435
1506651627511,430
1506651627520,430
1506651627528,432
1506651627536,432
1506651627544,441
1506651627552,449
1506651627560,468
1506651627568,494
1506651627577,520
1506651627585,561
1506651627593,597
1506651627601,639
1506651627610,679
1506651627618,709
1506651627626,741
1506651627630,759
1506651627638,772
1506651627646,776
1506651627654,767
1506651627663,760
1506651627671,737
1506651627679,715
1506651627687,691
1506651627695,661
1506651627703,637
1506651627712,610
1506651627720,591
1506651627728,574
1506651627736,557
