time,value
1506652078574,457
1506652078582,464
1506652078586,464
1506652078594,469
1506652078602,476
1506652078611,479
1506652078619,491
1506652078627,496
1506652078636,506
1506652078644,514
1506652078652,517
1506652078660,527
1506652078668,526
1506652078676,528
1506652078685,529
1506652078692,521
1506652078701,521
1506652078709,512
1506652078717,505
1506652078725,498
1506652078733,486
1506652078741,482
1506652078746,471
1506652078754,464
1506652078762,459
1506652078770,449
1506652078778,450
1506652078787,443
1506652078795,441
1506652078803,442
1506652078812,437
1506652078820,443
1506652078828,442
1506652078836,445
1506652078844,450
1506652078852,450
1506652078860,459
1506652078868,460
1506652078877,464
1506652078885,471
1506652078893,470
1506652078901,477
1506652078905,478
1506652078914,480
1506652078922,484
1506652078930,481
1506652078938,486
1506652078946,483
1506652078955,484
1506652078963,485
1506652078971,480
1506652078979,484
1506652078987,480
1506652078996,479
1506652079004,480
1506652079012,476
1506652079020,479
1506652079028,475
1506652079036,475
1506652079045,477
1506652079053,473
1506652079061,477
1506652079065,473
1506652079073,473
1506652079081,474
1506652079090,469
1506652079098,473
1506652079106,470
1506652079114,469
1506652079122,471
1506652079130,466
1506652079139,469
1506652079147,464
1506652079155,464
1506652079164,465
1506652079171,461
1506652079180,468
1506652079188,470
1506652079196,479
1506652079204,498
1506652079212,517
1506652079220,553
1506652079225,589
1506652079233,631
1506652079241,676
1506652079250,714
1506652079258,753
1506652079266,778
1506652079274,795
1506652079282,805
1506652079290,798
1506652079298,788
1506652079306,764
1506652079315,736
1506652079323,705
1506652079331,666
1506652079339,634
1506652079347,595
1506652079356,562
1506652079364,534
1506652079372,504
1506652079380,488
1506652079388,469
1506652079393,457
1506652079400,454
1506652079409,448
1506652079417,451
1506652079425,450
1506652079433,452
1506652079442,457
1506652079450,455
1506652079458,462
1506652079466,461
1506652079474,464
1506652079482,471
1506652079490,472
1506652079499,483
1506652079507,488
1506652079515,495
1506652079523,506
1506652079533,509
1506652079541,519
1506652079549,522
1506652079553,525
1506652079561,529
1506652079569,524
1506652079577,527
1506652079585,520
1506652079593,512
1506652079601,509
1506652079610,497
1506652079618,492
1506652079626,480
1506652079634,471
1506652079642,466
1506652079651,455
1506652079659,453
1506652079667,446
1506652079675,442
1506652079683,441
1506652079691,436
1506652079700,439
1506652079708,437
1506652079712,437
1506652079720,443
1506652079728,443
1506652079737,449
1506652079745,450
1506652079753,455
1506652079762,463
1506652079770,462
1506652079778,470
1506652079786,471
1506652079795,474
1506652079803,480
1506652079811,478
1506652079819,483
1506652079827,483
1506652079836,486
1506652079844,492
1506652079852,486
1506652079860,488
1506652079868,485
1506652079872,482
1506652079880,483
1506652079888,477
1506652079896,479
1506652079905,476
1506652079913,473
1506652079921,475
1506652079929,470
1506652079937,473
1506652079946,470
1506652079954,468
1506652079962,471
1506652079970,466
1506652079978,470
1506652079986,469
1506652079995,467
1506652080003,472
1506652080011,468
1506652080019,472
1506652080027,472
1506652080031,471
1506652080040,475
1506652080048,471
1506652080057,475
1506652080065,474
1506652080072,471
1506652080081,476
1506652080089,469
1506652080097,472
1506652080105,470
1506652080113,469
1506652080121,477
1506652080130,480
1506652080138,499
1506652080146,519
1506652080155,549
1506652080163,592
1506652080171,631
1506652080179,679
1506652080187,722
1506652080192,758
1506652080200,791
1506652080208,807
1506652080216,819
1506652080225,816
1506652080232,802
1506652080241,785
1506652080249,751
1506652080257,720
1506652080265,681
1506652080273,641
1506652080282,607
1506652080290,568
1506652080298,537
1506652080306,509
1506652080315,485
1506652080323,471
1506652080331,456
1506652080339,452
1506652080347,450
1506652080351,449
1506652080359,455
1506652080368,455
1506652080376,461
1506652080384,465
1506652080392,465
1506652080400,471
1506652080408,470
1506652080417,475
1506652080426,478
1506652080433,481
1506652080442,489
1506652080450,491
1506652080458,499
1506652080466,505
1506652080474,508
1506652080482,515
1506652080491,515
1506652080499,518
1506652080507,518
1506652080511,515
1506652080519,515
1506652080527,508
1506652080536,505
1506652080544,498
1506652080552,489
1506652080560,485
1506652080568,474
1506652080577,469
1506652080585,462
1506652080593,453
1506652080601,451
1506652080609,444
1506652080617,443
1506652080626,441
1506652080634,437
1506652080642,440
1506652080650,438
1506652080658,443
1506652080667,445
1506652080671,445
1506652080679,452
1506652080687,452
1506652080695,460
1506652080703,463
1506652080712,466
1506652080720,473
1506652080728,473
1506652080736,477
1506652080745,479
1506652080753,479
1506652080761,483
1506652080769,480
1506652080777,483
1506652080785,483
1506652080794,481
1506652080802,484
1506652080810,480
1506652080818,481
1506652080827,480
1506652080831,476
1506652080839,478
1506652080847,474
1506652080855,475
1506652080864,473
1506652080872,469
1506652080880,472
1506652080888,467
1506652080896,467
1506652080905,467
1506652080913,464
1506652080921,469
1506652080929,465
1506652080937,468
1506652080946,469
1506652080954,468
1506652080962,472
1506652080970,468
1506652080978,470
1506652080986,471
1506652080994,468
1506652080999,473
1506652081007,469
1506652081015,469
1506652081023,469
1506652081031,467
1506652081039,470
1506652081047,467
1506652081055,469
1506652081064,471
1506652081072,474
1506652081080,487
1506652081088,499
1506652081096,524
1506652081105,557
1506652081113,594
1506652081121,640
1506652081130,681
1506652081138,724
1506652081146,759
1506652081154,784
1506652081158,804
1506652081167,807
1506652081175,803
1506652081183,789
1506652081191,761
1506652081199,736
1506652081207,697
1506652081215,659
1506652081224,619
1506652081232,578
1506652081240,546
1506652081248,512
1506652081256,488
1506652081265,468
1506652081273,450
1506652081281,445
1506652081289,438
1506652081297,438
1506652081305,442
1506652081313,443
1506652081317,451
1506652081327,453
1506652081334,458
1506652081343,463
1506652081351,465
1506652081359,474
1506652081367,477
1506652081375,485
1506652081383,493
1506652081392,498
1506652081400,510
1506652081408,516
1506652081416,523
1506652081424,530
1506652081432,532
1506652081441,538
1506652081449,535
1506652081457,534
1506652081465,531
1506652081473,522
1506652081477,520
1506652081486,507
1506652081494,499
1506652081502,491
1506652081510,479
1506652081518,473
1506652081527,463
1506652081535,456
1506652081543,452
1506652081551,445
1506652081559,445
1506652081568,441
1506652081576,440
1506652081584,442
1506652081592,440
1506652081600,446
1506652081609,446
1506652081617,450
1506652081625,454
1506652081633,454
1506652081637,462
1506652081645,464
1506652081653,470
1506652081662,475
1506652081670,476
1506652081678,482
1506652081687,481
1506652081695,483
1506652081703,486
1506652081712,483
1506652081719,488
1506652081727,485
1506652081735,484
1506652081744,485
1506652081752,482
1506652081760,485
1506652081768,481
1506652081776,481
1506652081784,487
1506652081792,481
1506652081797,483
1506652081806,479
1506652081814,478
1506652081821,479
1506652081829,475
1506652081838,476
1506652081846,473
1506652081854,472
1506652081862,471
1506652081871,467
1506652081880,469
1506652081887,464
1506652081895,463
1506652081904,463
1506652081912,460
1506652081920,465
1506652081928,467
1506652081936,476
1506652081944,493
1506652081952,512
1506652081956,544
1506652081965,579
1506652081973,619
1506652081981,663
1506652081989,700
1506652081997,738
1506652082006,764
1506652082014,783
1506652082022,793
1506652082030,787
1506652082038,778
1506652082047,754
1506652082055,726
1506652082064,695
1506652082071,656
1506652082079,623
1506652082087,585
1506652082096,551
1506652082104,523
1506652082113,494
1506652082117,476
1506652082125,460
1506652082133,450
1506652082142,447
1506652082150,441
1506652082158,446
1506652082166,445
1506652082174,449
1506652082182,453
1506652082191,452
1506652082199,459
1506652082207,461
1506652082215,465
1506652082223,472
1506652082232,474
1506652082240,485
1506652082248,491
1506652082256,499
1506652082265,511
1506652082272,514
1506652082277,524
1506652082285,528
1506652082293,530
1506652082301,533
1506652082309,528
1506652082317,528
1506652082326,520
1506652082334,514
1506652082342,509
1506652082350,496
1506652082358,490
1506652082366,481
1506652082375,471
1506652082383,466
1506652082391,455
1506652082399,453
1506652082407,445
1506652082416,441
1506652082424,441
1506652082432,436
1506652082436,440
1506652082445,438
1506652082452,440
1506652082461,447
1506652082469,447
1506652082477,453
1506652082485,456
1506652082493,460
1506652082501,466
1506652082510,466
1506652082518,475
1506652082526,476
1506652082534,479
1506652082542,484
1506652082551,482
1506652082559,487
1506652082567,486
1506652082575,487
1506652082583,490
1506652082591,492
1506652082596,499
1506652082604,495
1506652082612,492
1506652082620,493
1506652082628,488
1506652082636,494
1506652082645,490
1506652082653,489
1506652082661,490
1506652082669,481
1506652082677,480
1506652082686,474
1506652082694,470
1506652082702,470
1506652082711,464
1506652082719,466
1506652082727,464
1506652082735,463
1506652082743,462
1506652082751,457
1506652082759,459
1506652082764,458
1506652082772,460
1506652082780,469
1506652082788,477
1506652082796,500
1506652082805,524
1506652082813,559
1506652082821,602
1506652082829,644
1506652082837,691
1506652082845,730
1506652082854,763
1506652082862,791
1506652082870,804
1506652082878,812
1506652082886,805
1506652082894,787
1506652082903,769
1506652082911,735
1506652082919,701
1506652082923,661
1506652082931,621
1506652082939,587
1506652082948,549
1506652082956,522
1506652082964,496
1506652082972,475
1506652082980,463
1506652082988,451
1506652082997,449
1506652083006,447
1506652083014,448
1506652083021,454
1506652083030,454
1506652083038,460
1506652083046,463
1506652083054,464
1506652083062,469
1506652083070,469
1506652083078,476
1506652083083,482
1506652083091,487
1506652083099,496
1506652083108,500
1506652083116,510
1506652083124,516
1506652083132,520
1506652083140,528
1506652083148,527
1506652083156,530
1506652083165,527
1506652083173,521
1506652083181,518
1506652083190,509
1506652083198,503
1506652083207,495
1506652083215,485
1506652083223,480
1506652083231,468
1506652083239,463
1506652083243,459
1506652083251,453
1506652083260,450
1506652083268,444
1506652083276,444
1506652083284,443
1506652083292,441
1506652083300,445
1506652083309,443
1506652083317,449
1506652083325,451
1506652083333,454
1506652083342,462
1506652083350,463
1506652083358,468
1506652083366,472
1506652083374,474
1506652083382,481
1506652083391,481
1506652083398,484
1506652083403,485
1506652083411,483
1506652083419,487
1506652083427,484
1506652083435,486
1506652083443,485
1506652083451,482
1506652083459,485
1506652083468,481
1506652083476,482
1506652083484,481
1506652083492,480
1506652083500,481
1506652083509,477
1506652083517,478
1506652083526,477
1506652083534,475
1506652083542,479
1506652083550,475
1506652083558,477
1506652083562,477
1506652083570,475
1506652083579,478
1506652083587,476
1506652083595,478
1506652083603,476
1506652083611,474
1506652083620,476
1506652083628,471
1506652083636,472
1506652083644,470
1506652083652,468
1506652083660,474
1506652083669,476
1506652083677,489
1506652083685,508
1506652083693,533
1506652083701,571
1506652083710,609
1506652083718,655
1506652083722,701
1506652083730,740
1506652083738,780
1506652083746,803
1506652083755,820
1506652083763,825
1506652083771,818
1506652083779,803
1506652083787,775
1506652083796,746
1506652083804,710
1506652083812,669
1506652083820,635
1506652083828,593
1506652083836,562
1506652083845,534
1506652083853,507
1506652083861,490
1506652083869,473
1506652083877,466
1506652083882,460
1506652083890,457
1506652083898,463
1506652083907,462
1506652083915,467
1506652083922,471
1506652083931,469
1506652083939,475
1506652083947,472
1506652083955,475
1506652083963,477
1506652083971,477
1506652083980,485
1506652083988,487
1506652083996,496
1506652084005,503
1506652084013,506
1506652084021,514
1506652084029,515
1506652084037,519
1506652084041,520
1506652084049,517
1506652084058,518
1506652084066,511
1506652084074,511
1506652084082,506
1506652084090,495
1506652084098,491
1506652084107,480
1506652084115,474
1506652084123,467
1506652084131,458
1506652084139,456
1506652084147,448
1506652084156,446
1506652084164,444
1506652084172,441
1506652084180,444
1506652084188,446
1506652084197,449
1506652084201,450
1506652084209,452
1506652084218,462
1506652084226,459
1506652084234,462
1506652084242,468
1506652084250,472
1506652084258,475
1506652084266,472
1506652084274,475
1506652084283,477
1506652084292,476
1506652084300,481
1506652084308,480
1506652084316,482
1506652084325,483
1506652084333,480
1506652084341,483
1506652084349,480
1506652084357,479
1506652084361,480
1506652084370,477
1506652084378,479
1506652084386,475
1506652084394,475
1506652084402,476
1506652084410,473
1506652084419,476
1506652084427,472
1506652084435,473
1506652084443,474
1506652084451,471
1506652084459,475
1506652084468,473
1506652084476,474
1506652084484,475
1506652084492,472
1506652084500,476
1506652084509,472
1506652084517,473
1506652084521,474
1506652084529,470
1506652084537,473
1506652084546,469
1506652084554,468
1506652084562,471
1506652084570,469
1506652084578,477
1506652084587,484
1506652084595,500
1506652084603,525
1506652084611,552
1506652084619,595
1506652084627,634
1506652084635,678
1506652084644,721
1506652084652,753
1506652084660,784
1506652084668,801
1506652084676,807
1506652084681,805
1506652084689,794
1506652084697,773
1506652084705,739
1506652084713,704
1506652084721,670
1506652084730,633
1506652084738,600
1506652084746,566
1506652084754,537
1506652084762,516
1506652084771,493
1506652084779,483
1506652084787,471
1506652084795,463
1506652084803,460
1506652084811,458
1506652084820,467
1506652084828,466
1506652084836,471
1506652084844,472
1506652084848,465
1506652084856,471
1506652084865,469
1506652084873,468
1506652084881,471
1506652084889,475
1506652084897,487
1506652084906,492
1506652084914,496
1506652084922,502
1506652084930,503
1506652084938,511
1506652084947,512
1506652084955,515
1506652084963,520
1506652084971,516
1506652084979,516
1506652084987,509
1506652084995,501
1506652085003,500
1506652085008,489
1506652085017,485
1506652085024,476
1506652085032,468
1506652085040,461
1506652085049,451
1506652085057,450
1506652085066,446
1506652085073,442
1506652085082,442
1506652085090,440
1506652085098,443
1506652085107,444
1506652085115,447
1506652085123,452
1506652085131,456
1506652085139,468
1506652085147,465
1506652085155,469
1506652085163,479
1506652085167,476
1506652085176,479
1506652085184,479
1506652085192,480
1506652085200,483
1506652085209,481
1506652085217,485
1506652085225,484
1506652085233,484
1506652085241,486
1506652085249,482
1506652085257,485
1506652085266,484
1506652085274,481
1506652085282,484
1506652085290,481
1506652085299,482
1506652085308,480
1506652085315,479
1506652085323,480
1506652085327,476
1506652085335,479
1506652085343,476
1506652085352,473
1506652085360,475
1506652085368,470
1506652085376,471
1506652085384,467
1506652085393,464
1506652085401,466
1506652085410,463
1506652085418,468
1506652085427,472
1506652085434,482
1506652085443,502
1506652085451,522
1506652085459,557
1506652085467,592
1506652085475,632
1506652085483,675
1506652085488,710
1506652085496,745
1506652085504,767
1506652085512,780
1506652085520,787
1506652085528,776
1506652085537,764
1506652085545,740
1506652085553,709
1506652085561,680
1506652085569,642
1506652085578,609
1506652085586,575
1506652085594,544
1506652085602,521
1506652085610,496
1506652085618,484
1506652085627,472
1506652085635,464
1506652085643,463
1506652085647,458
1506652085655,461
1506652085663,461
1506652085672,460
1506652085680,462
1506652085688,458
1506652085696,460
1506652085705,459
1506652085713,459
1506652085721,465
1506652085729,467
1506652085737,477
1506652085746,485
1506652085754,491
1506652085762,503
1506652085770,508
1506652085778,516
1506652085786,521
1506652085794,521
1506652085803,524
1506652085807,519
1506652085815,518
1506652085823,512
1506652085832,503
1506652085840,499
1506652085848,487
1506652085856,481
1506652085864,472
1506652085872,462
1506652085881,457
1506652085889,448
1506652085897,446
1506652085905,441
1506652085913,438
1506652085921,440
1506652085930,437
1506652085938,441
1506652085946,443
1506652085954,444
1506652085962,452
1506652085966,453
1506652085975,459
1506652085983,463
1506652085991,466
1506652085999,473
1506652086008,474
1506652086016,479
1506652086024,480
1506652086032,480
1506652086040,485
1506652086048,483
1506652086056,486
1506652086065,485
1506652086073,482
1506652086081,485
1506652086089,481
1506652086097,483
1506652086106,482
1506652086115,480
1506652086122,483
1506652086126,479
1506652086134,480
1506652086142,479
1506652086151,477
1506652086159,479
1506652086167,473
1506652086175,474
1506652086183,471
1506652086192,468
1506652086200,470
1506652086208,465
1506652086216,465
1506652086225,464
1506652086232,461
1506652086241,463
1506652086249,460
1506652086257,464
1506652086265,467
1506652086273,474
1506652086281,492
1506652086286,510
1506652086294,542
1506652086302,578
1506652086311,616
1506652086319,662
1506652086327,699
1506652086335,736
1506652086343,766
1506652086351,783
1506652086360,796
1506652086367,790
1506652086376,780
1506652086384,759
1506652086392,728
1506652086400,701
1506652086409,663
1506652086417,629
1506652086425,595
1506652086433,561
1506652086441,537
1506652086445,510
1506652086453,493
1506652086462,478
1506652086470,466
1506652086478,464
1506652086487,457
1506652086495,460
1506652086503,461
1506652086512,460
1506652086520,464
1506652086528,461
1506652086536,462
1506652086545,462
1506652086553,461
1506652086561,466
1506652086569,467
1506652086577,475
1506652086585,481
1506652086593,487
1506652086602,498
1506652086606,502
1506652086614,509
1506652086622,515
1506652086630,515
1506652086639,519
1506652086647,515
1506652086655,515
1506652086663,511
1506652086671,503
1506652086679,500
1506652086687,490
1506652086696,484
1506652086704,478
1506652086712,468
1506652086720,465
1506652086728,456
1506652086737,452
1506652086745,449
1506652086753,443
1506652086761,445
1506652086769,442
1506652086774,443
1506652086782,445
1506652086790,444
1506652086798,450
1506652086807,450
1506652086814,455
1506652086822,460
1506652086831,461
1506652086839,468
1506652086847,469
1506652086856,474
1506652086864,477
1506652086872,478
1506652086880,482
1506652086888,480
1506652086896,481
1506652086905,482
1506652086913,479
1506652086921,482
1506652086929,479
1506652086933,479
1506652086942,479
1506652086950,476
1506652086958,478
1506652086966,475
1506652086974,476
1506652086982,476
1506652086991,470
1506652086999,474
1506652087007,471
1506652087015,472
1506652087023,472
1506652087031,470
1506652087039,473
1506652087047,470
1506652087056,472
1506652087064,473
1506652087072,470
1506652087080,474
1506652087088,471
1506652087092,472
1506652087101,473
1506652087110,469
1506652087118,471
1506652087125,468
1506652087133,467
1506652087142,467
1506652087150,465
1506652087158,474
1506652087166,475
1506652087174,482
1506652087183,496
1506652087191,510
1506652087199,539
1506652087208,572
1506652087216,613
1506652087224,658
1506652087232,697
1506652087240,739
1506652087248,768
1506652087252,790
1506652087260,803
1506652087268,800
1506652087277,795
1506652087286,773
1506652087293,746
1506652087301,717
1506652087311,679
1506652087319,647
1506652087327,608
1506652087335,576
1506652087343,548
1506652087351,520
1506652087359,503
1506652087368,485
1506652087376,475
1506652087384,473
1506652087392,467
1506652087400,472
1506652087408,471
1506652087413,473
1506652087421,477
1506652087429,474
1506652087437,477
1506652087447,474
1506652087454,473
1506652087462,473
1506652087470,470
1506652087478,476
1506652087487,478
1506652087495,481
1506652087503,489
1506652087511,491
1506652087519,499
1506652087527,502
1506652087535,505
1506652087544,510
1506652087552,507
1506652087560,509
1506652087568,504
1506652087572,501
1506652087581,498
1506652087589,490
1506652087597,487
1506652087605,477
1506652087613,471
1506652087622,466
1506652087630,457
1506652087638,455
1506652087647,449
1506652087655,445
1506652087663,444
1506652087670,439
1506652087679,443
1506652087687,442
1506652087695,443
1506652087703,448
1506652087711,448
1506652087719,453
1506652087727,456
1506652087732,460
1506652087740,466
1506652087748,466
1506652087756,473
1506652087765,474
1506652087773,476
1506652087781,481
1506652087789,479
1506652087797,483
1506652087805,481
1506652087814,481
1506652087822,482
1506652087830,478
1506652087838,480
1506652087846,476
1506652087854,475
1506652087863,476
1506652087871,471
1506652087879,474
1506652087887,471
1506652087891,469
1506652087899,471
1506652087908,470
1506652087916,471
1506652087924,467
1506652087932,466
1506652087940,468
1506652087949,464
1506652087957,467
1506652087965,466
1506652087973,466
1506652087981,470
1506652087990,466
1506652087998,470
1506652088006,469
1506652088015,469
1506652088023,472
1506652088030,468
1506652088039,471
1506652088047,469
1506652088051,467
1506652088059,469
1506652088067,465
1506652088076,466
1506652088084,464
1506652088092,465
1506652088100,470
1506652088109,474
1506652088117,489
1506652088125,508
1506652088133,535
1506652088141,574
1506652088149,612
1506652088157,659
1506652088165,701
1506652088174,738
1506652088182,772
1506652088190,791
1506652088199,806
1506652088207,806
1506652088211,795
1506652088219,779
1506652088227,749
1506652088236,720
1506652088244,685
1506652088252,648
1506652088260,614
1506652088268,577
1506652088276,550
1506652088284,522
1506652088293,499
1506652088301,486
1506652088310,470
1506652088318,466
1506652088326,462
1506652088334,461
1506652088342,466
1506652088350,464
1506652088360,469
1506652088367,468
1506652088371,467
1506652088379,470
1506652088387,466
1506652088395,469
1506652088404,470
1506652088412,471
1506652088420,477
1506652088428,479
1506652088436,487
1506652088444,493
1506652088452,497
1506652088460,505
1506652088469,505
1506652088477,510
1506652088485,510
1506652088493,507
1506652088501,508
1506652088510,502
1506652088518,500
1506652088526,494
1506652088530,485
1506652088540,481
1506652088546,471
1506652088555,467
1506652088564,462
1506652088572,458
1506652088580,457
1506652088588,448
1506652088596,446
1506652088605,441
1506652088613,438
1506652088621,442
1506652088629,439
1506652088637,443
1506652088646,445
1506652088654,446
1506652088662,453
1506652088670,454
1506652088678,461
1506652088686,464
1506652088690,466
1506652088699,474
1506652088707,473
1506652088715,478
1506652088723,480
1506652088731,479
1506652088740,482
1506652088748,479
1506652088756,482
1506652088764,481
1506652088772,479
1506652088781,481
1506652088789,476
1506652088797,477
1506652088805,475
1506652088813,472
1506652088822,473
1506652088830,469
1506652088838,469
1506652088846,468
1506652088854,465
1506652088858,468
1506652088867,465
1506652088875,467
1506652088883,468
1506652088891,466
1506652088899,470
1506652088907,468
1506652088915,471
1506652088924,472
1506652088932,470
1506652088940,473
1506652088948,470
1506652088956,471
1506652088965,470
1506652088973,467
1506652088981,470
1506652088989,465
1506652088997,467
1506652089006,466
1506652089014,464
1506652089018,471
1506652089026,472
1506652089034,483
1506652089042,500
1506652089051,522
1506652089059,558
1506652089067,593
1506652089075,637
1506652089083,680
1506652089091,717
1506652089100,754
1506652089108,775
1506652089116,791
1506652089124,796
1506652089132,786
1506652089141,773
1506652089149,746
1506652089157,715
1506652089165,680
1506652089173,641
1506652089177,608
1506652089186,570
1506652089194,540
1506652089202,513
1506652089211,488
1506652089219,475
1506652089227,460
1506652089235,454
1506652089243,453
1506652089252,450
1506652089260,454
1506652089268,454
1506652089276,458
1506652089285,459
1506652089292,457
1506652089301,461
1506652089309,459
1506652089317,462
1506652089325,467
1506652089333,469
1506652089337,478
1506652089345,482
1506652089353,491
1506652089361,500
1506652089370,505
1506652089378,515
1506652089386,517
1506652089394,520
1506652089402,521
1506652089411,516
1506652089419,516
1506652089427,508
1506652089435,502
1506652089443,495
1506652089452,484
1506652089460,479
1506652089468,468
1506652089476,462
1506652089484,456
1506652089492,448
1506652089497,448
1506652089505,442
1506652089513,442
1506652089522,441
1506652089529,439
1506652089537,443
1506652089546,442
1506652089554,446
1506652089562,450
1506652089570,451
1506652089578,459
1506652089587,459
1506652089595,464
1506652089603,470
1506652089612,470
1506652089620,477
1506652089628,477
1506652089636,481
1506652089644,484
1506652089652,481
1506652089657,486
1506652089665,482
1506652089673,483
1506652089681,483
1506652089689,479
1506652089698,482
1506652089706,479
1506652089714,479
1506652089723,481
1506652089730,475
1506652089738,479
1506652089746,475
1506652089755,474
1506652089763,475
1506652089771,470
1506652089779,473
1506652089787,469
1506652089796,467
1506652089804,467
1506652089812,464
1506652089817,466
1506652089825,462
1506652089833,462
1506652089841,462
1506652089850,459
1506652089857,466
1506652089866,470
1506652089874,481
1506652089882,502
1506652089890,526
1506652089899,563
1506652089906,599
1506652089915,642
1506652089923,684
1506652089931,719
1506652089939,755
1506652089947,775
1506652089956,787
1506652089964,791
1506652089972,779
1506652089976,764
1506652089984,737
1506652089993,707
1506652090001,673
1506652090009,633
1506652090017,601
1506652090026,565
1506652090033,535
1506652090042,511
1506652090050,487
1506652090058,475
1506652090066,462
1506652090074,455
1506652090082,455
1506652090091,452
1506652090099,456
1506652090107,455
1506652090116,456
1506652090124,458
1506652090132,455
1506652090136,458
1506652090144,456
1506652090152,458
1506652090161,463
1506652090169,465
1506652090177,474
1506652090185,480
1506652090193,488
1506652090201,498
1506652090209,502
1506652090218,511
1506652090226,514
1506652090234,515
1506652090242,518
1506652090250,512
1506652090259,512
1506652090267,505
1506652090275,502
1506652090283,498
1506652090291,487
1506652090295,481
1506652090304,470
1506652090312,462
1506652090320,456
1506652090328,446
1506652090336,445
1506652090345,439
1506652090353,435
1506652090361,437
1506652090369,433
1506652090377,436
1506652090386,436
1506652090394,438
1506652090402,444
1506652090410,447
1506652090419,455
1506652090426,458
1506652090435,461
1506652090443,469
1506652090451,469
1506652090455,476
1506652090463,477
1506652090471,478
1506652090480,483
1506652090488,481
1506652090496,483
1506652090504,482
1506652090513,481
1506652090521,483
1506652090530,479
1506652090538,481
1506652090546,478
1506652090554,476
1506652090562,477
1506652090570,473
1506652090578,474
1506652090587,472
1506652090595,471
1506652090603,472
1506652090611,468
1506652090615,471
1506652090623,468
1506652090631,467
1506652090640,469
1506652090648,464
1506652090656,467
1506652090664,465
1506652090672,462
1506652090681,464
1506652090689,459
1506652090697,461
1506652090705,459
1506652090715,458
1506652090722,462
1506652090731,462
1506652090738,473
1506652090747,485
1506652090755,504
1506652090763,537
1506652090771,571
1506652090775,617
1506652090784,662
1506652090792,704
1506652090800,747
1506652090808,775
1506652090816,799
1506652090825,810
1506652090833,808
1506652090841,800
1506652090849,776
1506652090857,751
1506652090865,717
1506652090874,678
1506652090883,643
1506652090891,602
1506652090899,570
1506652090907,538
1506652090915,510
1506652090923,492
1506652090931,471
1506652090939,464
1506652090943,458
1506652090951,453
1506652090959,458
1506652090968,457
1506652090976,461
1506652090984,463
1506652090992,463
1506652091000,466
1506652091009,463
1506652091017,465
1506652091025,464
1506652091033,464
1506652091041,470
1506652091050,471
1506652091058,479
1506652091067,485
1506652091074,490
1506652091083,500
1506652091090,503
1506652091098,508
1506652091103,511
1506652091111,510
1506652091119,512
1506652091126,506
1506652091135,504
1506652091144,498
1506652091152,490
1506652091160,487
1506652091168,477
1506652091176,471
1506652091185,464
1506652091193,456
1506652091201,454
1506652091209,447
1506652091217,445
1506652091226,440
1506652091234,437
1506652091242,441
1506652091251,437
1506652091259,441
1506652091263,443
1506652091270,443
1506652091279,450
1506652091287,451
1506652091295,457
1506652091303,461
1506652091311,464
1506652091320,470
1506652091328,470
1506652091336,474
1506652091344,475
1506652091352,474
1506652091361,478
1506652091369,477
1506652091377,478
1506652091385,478
1506652091393,477
1506652091402,480
1506652091410,476
1506652091418,478
1506652091422,477
1506652091430,474
1506652091438,477
1506652091447,472
1506652091455,473
1506652091463,472
1506652091471,468
1506652091479,469
1506652091487,466
1506652091496,466
1506652091504,464
1506652091512,462
1506652091521,466
1506652091529,462
1506652091537,465
1506652091545,466
1506652091553,465
1506652091561,471
1506652091570,469
1506652091578,471
1506652091582,472
1506652091590,470
1506652091598,473
1506652091606,470
1506652091615,472
1506652091623,470
1506652091630,466
1506652091639,468
1506652091647,463
1506652091655,463
1506652091663,464
1506652091671,465
1506652091680,477
1506652091688,489
1506652091696,514
1506652091705,548
1506652091713,585
1506652091721,633
1506652091729,679
1506652091737,726
1506652091741,767
1506652091749,795
1506652091757,819
1506652091766,826
1506652091774,825
1506652091782,813
1506652091790,788
1506652091798,760
1506652091807,722
1506652091815,685
1506652091823,646
1506652091831,604
1506652091839,572
1506652091848,538
1506652091856,511
1506652091864,491
1506652091873,471
1506652091881,465
1506652091889,456
1506652091897,456
1506652091902,458
1506652091910,459
1506652091918,466
1506652091926,466
1506652091934,469
1506652091943,471
1506652091951,467
1506652091959,469
1506652091967,466
1506652091975,466
1506652091984,469
1506652091992,468
1506652092000,476
1506652092008,479
1506652092016,485
1506652092025,492
1506652092032,495
1506652092040,504
1506652092048,505
1506652092056,506
1506652092061,508
1506652092069,504
1506652092077,505
1506652092085,498
1506652092093,494
1506652092102,490
1506652092110,481
1506652092118,477
1506652092127,467
1506652092135,462
1506652092143,457
1506652092151,448
1506652092159,447
1506652092167,442
1506652092176,440
1506652092184,441
1506652092192,438
1506652092200,442
1506652092208,442
1506652092217,443
1506652092221,448
1506652092229,447
1506652092237,455
1506652092245,456
1506652092253,460
1506652092261,465
1506652092270,465
1506652092278,471
1506652092286,470
1506652092294,473
1506652092302,476
1506652092311,473
1506652092320,477
1506652092328,474
1506652092335,475
1506652092343,475
1506652092352,471
1506652092360,474
1506652092368,471
1506652092376,470
1506652092380,471
1506652092388,468
1506652092396,470
1506652092405,466
1506652092413,465
1506652092422,467
1506652092430,463
1506652092438,464
1506652092447,462
1506652092454,461
1506652092462,463
1506652092471,459
1506652092479,463
1506652092487,461
1506652092495,462
1506652092503,465
1506652092512,464
1506652092520,468
1506652092528,466
1506652092536,467
1506652092540,470
1506652092548,466
1506652092556,470
1506652092565,468
1506652092572,466
1506652092581,468
1506652092589,463
1506652092597,465
1506652092606,462
1506652092614,462
1506652092622,465
1506652092630,469
1506652092638,484
1506652092646,502
1506652092654,530
1506652092663,571
1506652092671,611
1506652092679,661
1506652092687,706
1506652092695,746
1506652092703,785
1506652092708,807
1506652092717,822
1506652092725,822
1506652092732,814
1506652092740,795
1506652092749,764
1506652092757,733
1506652092765,693
1506652092774,652
1506652092782,616
1506652092790,576
1506652092799,545
1506652092807,515
1506652092815,490
1506652092823,473
1506652092831,458
1506652092839,453
1506652092847,448
1506652092855,448
1506652092863,454
1506652092868,453
1506652092877,460
1506652092884,460
1506652092892,461
1506652092900,463
1506652092909,462
1506652092917,464
1506652092926,463
1506652092933,464
1506652092942,470
1506652092950,472
1506652092958,481
1506652092967,486
1506652092974,492
1506652092983,501
1506652092991,503
1506652092999,510
1506652093007,512
1506652093015,512
1506652093023,514
1506652093028,508
1506652093036,506
1506652093045,499
1506652093052,492
1506652093061,487
1506652093070,476
1506652093077,471
1506652093085,464
1506652093093,456
1506652093102,453
1506652093110,446
1506652093118,445
1506652093126,441
1506652093134,438
1506652093142,439
1506652093150,436
1506652093158,439
1506652093167,441
1506652093175,442
1506652093183,448
1506652093187,449
1506652093195,456
1506652093203,459
1506652093212,463
1506652093220,469
1506652093229,469
1506652093237,476
1506652093245,477
1506652093252,477
1506652093261,482
1506652093269,478
1506652093277,481
1506652093285,480
1506652093294,477
1506652093302,479
1506652093310,476
1506652093319,478
1506652093327,475
1506652093334,472
1506652093342,475
1506652093347,470
1506652093355,471
1506652093363,470
1506652093371,466
1506652093379,469
1506652093388,465
1506652093396,467
1506652093404,468
1506652093413,465
1506652093421,468
1506652093429,464
1506652093437,466
1506652093445,465
1506652093453,463
1506652093461,466
1506652093469,462
1506652093478,463
1506652093486,463
1506652093494,461
1506652093502,464
1506652093506,460
1506652093515,461
1506652093523,462
1506652093531,460
1506652093539,467
1506652093547,471
1506652093555,486
1506652093564,507
1506652093572,533
1506652093580,574
1506652093589,613
1506652093596,661
1506652093605,703
1506652093614,739
1506652093621,775
1506652093629,793
1506652093638,804
1506652093646,802
1506652093654,787
1506652093662,769
1506652093666,736
1506652093674,703
1506652093683,665
1506652093691,623
1506652093699,589
1506652093707,550
1506652093716,519
1506652093724,494
1506652093732,468
1506652093740,455
1506652093749,442
1506652093757,438
1506652093765,437
1506652093773,436
1506652093781,442
1506652093789,442
1506652093798,447
1506652093806,449
1506652093814,449
1506652093822,455
1506652093826,455
1506652093834,461
1506652093843,466
1506652093851,471
1506652093859,482
1506652093867,488
1506652093875,499
1506652093884,508
1506652093892,513
1506652093900,523
1506652093908,524
1506652093916,527
1506652093924,528
1506652093933,523
1506652093941,521
1506652093949,512
1506652093957,505
1506652093965,496
1506652093973,484
1506652093982,480
1506652093986,468
1506652093994,462
1506652094002,456
1506652094010,448
1506652094019,448
1506652094027,441
1506652094035,440
1506652094043,441
1506652094051,437
1506652094060,442
1506652094068,442
1506652094076,447
1506652094084,451
1506652094092,451
1506652094101,459
1506652094109,461
1506652094118,466
1506652094126,470
1506652094134,470
1506652094141,477
1506652094146,476
1506652094154,479
1506652094162,482
1506652094170,480
1506652094178,485
1506652094186,482
1506652094195,483
1506652094203,485
1506652094211,480
1506652094220,484
1506652094228,480
1506652094236,481
1506652094244,482
1506652094252,477
1506652094260,479
1506652094268,476
1506652094277,475
1506652094285,475
1506652094293,470
1506652094301,472
1506652094305,467
1506652094313,467
1506652094322,466
1506652094330,461
1506652094338,463
1506652094346,459
1506652094354,457
1506652094362,457
1506652094371,455
1506652094379,460
1506652094387,462
1506652094395,471
1506652094403,489
1506652094412,509
1506652094420,545
1506652094429,581
1506652094437,625
1506652094445,672
1506652094453,711
1506652094461,751
1506652094465,779
1506652094473,797
1506652094481,806
1506652094490,799
1506652094498,788
1506652094506,762
1506652094515,732
1506652094523,698
1506652094531,657
1506652094539,622
1506652094547,583
1506652094556,548
1506652094564,520
1506652094572,491
1506652094580,474
1506652094588,457
1506652094597,449
1506652094605,445
1506652094613,441
1506652094621,446
1506652094629,445
1506652094633,446
1506652094641,451
1506652094649,449
1506652094657,452
1506652094665,451
1506652094674,453
1506652094682,457
1506652094690,458
1506652094698,469
1506652094706,474
1506652094715,482
1506652094723,494
1506652094732,500
1506652094740,511
1506652094748,518
1506652094756,521
1506652094765,527
1506652094773,523
1506652094781,523
1506652094789,518
1506652094793,510
1506652094801,506
1506652094810,493
1506652094818,488
1506652094826,478
1506652094834,469
1506652094842,462
1506652094850,451
1506652094859,448
1506652094867,441
1506652094875,438
1506652094883,438
1506652094891,433
1506652094900,437
1506652094908,436
1506652094916,438
1506652094924,444
1506652094932,444
1506652094940,451
1506652094949,455
1506652094953,459
1506652094961,465
1506652094969,466
1506652094977,473
1506652094986,474
1506652094994,475
1506652095002,479
1506652095010,478
1506652095018,482
1506652095027,480
1506652095035,479
1506652095043,482
1506652095051,478
1506652095059,480
1506652095067,478
1506652095076,476
1506652095084,477
1506652095092,473
1506652095100,474
1506652095108,471
1506652095112,470
1506652095121,471
1506652095129,467
1506652095137,470
1506652095145,468
1506652095153,466
1506652095161,469
1506652095170,466
1506652095178,469
1506652095186,466
1506652095194,464
1506652095202,465
1506652095211,461
1506652095219,463
1506652095227,460
1506652095235,456
1506652095243,458
1506652095252,453
1506652095260,456
1506652095268,455
1506652095272,456
1506652095280,465
1506652095288,474
1506652095297,498
1506652095305,527
1506652095313,564
1506652095321,612
1506652095329,657
1506652095337,707
1506652095346,752
1506652095354,785
1506652095362,815
1506652095370,827
1506652095378,832
1506652095387,822
1506652095395,801
1506652095403,776
1506652095411,737
1506652095420,702
1506652095428,660
1506652095432,617
1506652095440,582
1506652095448,543
1506652095456,515
1506652095465,490
1506652095472,468
1506652095481,458
1506652095489,446
1506652095497,446
1506652095506,446
1506652095514,447
1506652095522,454
1506652095530,454
1506652095538,458
1506652095546,459
1506652095554,458
1506652095563,462
1506652095571,460
1506652095579,464
1506652095587,466
1506652095591,468
1506652095599,477
1506652095608,480
1506652095616,489
1506652095625,496
1506652095632,500
1506652095640,508
1506652095648,509
1506652095657,512
1506652095665,513
1506652095673,510
1506652095681,510
1506652095690,503
1506652095698,498
1506652095706,492
1506652095714,483
1506652095723,481
1506652095731,468
1506652095739,465
1506652095747,459
1506652095752,450
1506652095760,449
1506652095768,441
1506652095776,440
1506652095785,438
1506652095792,436
1506652095801,439
1506652095809,438
1506652095817,443
1506652095825,446
1506652095833,447
1506652095841,454
1506652095849,455
1506652095857,461
1506652095866,466
1506652095874,468
1506652095882,476
1506652095890,475
1506652095898,479
1506652095906,481
1506652095911,480
1506652095919,484
1506652095928,480
1506652095937,482
1506652095944,482
1506652095952,479
1506652095961,481
1506652095969,477
1506652095977,478
1506652095985,478
1506652095993,474
1506652096001,476
1506652096010,471
1506652096018,471
1506652096026,469
1506652096034,465
1506652096042,468
1506652096051,464
1506652096059,464
1506652096067,464
1506652096071,463
1506652096079,466
1506652096088,463
1506652096096,465
1506652096104,466
1506652096113,464
1506652096120,468
1506652096129,466
1506652096137,467
1506652096145,469
1506652096153,465
1506652096161,468
1506652096169,465
1506652096177,464
1506652096186,465
1506652096194,461
1506652096202,464
1506652096210,461
1506652096218,465
1506652096226,473
1506652096231,484
1506652096239,512
1506652096247,541
1506652096255,583
1506652096263,632
1506652096271,680
1506652096280,732
1506652096288,775
1506652096296,810
1506652096304,835
1506652096313,844
1506652096321,847
1506652096329,831
1506652096337,809
1506652096345,779
1506652096353,738
1506652096361,700
1506652096370,655
1506652096378,613
1506652096386,575
1506652096390,536
1506652096398,509
1506652096407,480
1506652096415,461
1506652096423,450
1506652096431,438
1506652096440,439
1506652096448,438
1506652096456,442
1506652096465,448
1506652096472,449
1506652096481,456
1506652096489,456
1506652096497,458
1506652096505,460
1506652096513,457
1506652096522,462
1506652096530,463
1506652096537,467
1506652096545,474
1506652096553,476
1506652096558,487
1506652096566,491
1506652096574,498
1506652096582,505
1506652096591,506
1506652096599,512
1506652096607,510
1506652096615,509
1506652096624,508
1506652096632,500
1506652096640,498
1506652096648,490
1506652096657,482
1506652096665,478
1506652096673,467
1506652096681,463
1506652096689,454
1506652096698,449
1506652096706,446
1506652096713,439
1506652096718,440
1506652096727,436
1506652096735,435
1506652096743,438
1506652096751,435
1506652096759,442
1506652096768,443
1506652096776,447
1506652096784,452
1506652096792,454
1506652096800,462
1506652096808,463
1506652096816,467
1506652096826,472
1506652096832,471
1506652096840,477
1506652096849,476
1506652096857,477
1506652096865,480
1506652096873,477
1506652096877,480
1506652096886,477
1506652096894,476
1506652096902,478
1506652096910,472
1506652096919,474
1506652096927,471
1506652096934,468
1506652096943,470
1506652096951,465
1506652096959,466
1506652096967,463
1506652096976,462
1506652096984,463
1506652096992,459
1506652097001,462
1506652097009,460
1506652097017,460
1506652097026,463
1506652097033,460
1506652097038,464
1506652097046,463
1506652097054,462
1506652097062,466
1506652097071,463
1506652097079,465
1506652097087,464
1506652097095,463
1506652097103,465
1506652097111,460
1506652097120,463
1506652097128,460
1506652097136,458
1506652097144,461
1506652097152,459
1506652097160,468
1506652097169,479
1506652097177,497
1506652097186,528
1506652097193,562
1506652097197,609
1506652097206,657
1506652097214,704
1506652097222,751
1506652097230,783
1506652097238,811
1506652097246,826
1506652097254,827
1506652097263,821
1506652097271,798
1506652097279,771
1506652097287,734
1506652097295,693
1506652097304,653
1506652097312,608
1506652097320,570
1506652097328,533
1506652097337,500
1506652097345,476
1506652097353,452
1506652097357,442
1506652097365,432
1506652097373,428
1506652097381,432
1506652097390,431
1506652097398,439
1506652097406,441
1506652097414,444
1506652097422,449
1506652097431,448
1506652097439,454
1506652097447,456
1506652097455,460
1506652097463,468
1506652097472,470
1506652097480,481
1506652097488,489
1506652097496,496
1506652097504,508
1506652097512,511
1506652097516,519
1506652097525,523
1506652097532,523
1506652097541,525
1506652097549,518
1506652097557,517
1506652097566,509
1506652097574,498
1506652097582,493
1506652097590,480
1506652097598,474
1506652097607,465
1506652097615,455
1506652097623,452
1506652097632,443
1506652097639,441
1506652097648,437
1506652097656,433
1506652097664,436
1506652097672,433
1506652097676,437
1506652097685,439
1506652097693,440
1506652097701,448
1506652097709,449
1506652097718,456
1506652097726,460
1506652097733,464
1506652097742,470
1506652097750,470
1506652097758,476
1506652097766,479
1506652097774,479
1506652097783,485
1506652097791,482
1506652097799,486
1506652097807,487
1506652097815,484
1506652097824,488
1506652097832,484
1506652097836,485
1506652097844,483
1506652097852,480
1506652097860,482
1506652097868,478
1506652097877,479
1506652097885,478
1506652097893,474
1506652097901,478
1506652097909,473
1506652097918,474
1506652097926,473
1506652097934,469
1506652097942,471
1506652097950,467
1506652097958,467
1506652097967,465
1506652097975,461
1506652097983,463
1506652097991,458
1506652097995,459
1506652098003,460
1506652098012,459
1506652098020,467
1506652098029,475
1506652098036,494
1506652098045,520
1506652098054,551
1506652098062,595
1506652098070,638
1506652098078,687
1506652098087,731
1506652098095,766
1506652098103,799
1506652098111,813
1506652098119,819
1506652098127,814
1506652098135,795
1506652098143,773
1506652098152,737
1506652098156,700
1506652098164,661
1506652098172,616
1506652098180,581
1506652098188,541
1506652098197,511
1506652098205,486
1506652098213,462
1506652098221,451
1506652098229,441
1506652098237,438
1506652098245,438
1506652098253,436
1506652098262,442
1506652098270,442
1506652098278,445
1506652098286,448
1506652098294,447
1506652098303,454
1506652098311,455
1506652098319,461
1506652098323,470
1506652098332,475
1506652098340,488
1506652098348,495
1506652098356,506
1506652098364,515
1506652098372,520
1506652098381,529
1506652098389,529
1506652098397,531
1506652098405,531
1506652098413,524
1506652098422,522
1506652098430,513
1506652098438,506
1506652098446,498
1506652098454,486
1506652098463,480
1506652098471,469
1506652098479,462
1506652098483,457
1506652098491,449
1506652098499,448
1506652098508,442
1506652098516,441
1506652098524,442
1506652098533,440
1506652098540,444
1506652098548,444
1506652098557,454
1506652098565,461
1506652098573,461
1506652098581,469
1506652098589,471
1506652098598,475
1506652098606,484
1506652098614,481
1506652098623,488
1506652098631,489
1506652098638,485
1506652098643,485
1506652098651,487
1506652098659,493
1506652098667,489
1506652098675,489
1506652098684,490
1506652098692,485
1506652098700,487
1506652098708,478
1506652098716,474
1506652098725,474
1506652098733,470
1506652098741,471
1506652098749,469
1506652098757,468
1506652098766,469
1506652098774,464
1506652098782,468
1506652098790,465
1506652098798,463
1506652098802,464
1506652098811,459
1506652098820,461
1506652098828,459
1506652098835,459
1506652098843,463
1506652098851,464
1506652098860,476
1506652098868,490
1506652098876,514
1506652098884,550
1506652098892,587
1506652098900,636
1506652098909,682
1506652098917,726
1506652098926,769
1506652098934,796
1506652098941,822
1506652098950,832
1506652098958,829
1506652098962,817
1506652098970,789
1506652098978,762
1506652098986,723
1506652098995,683
1506652099003,645
1506652099011,602
1506652099020,570
1506652099029,537
1506652099037,508
1506652099045,488
1506652099053,468
1506652099061,460
1506652099069,451
1506652099077,448
1506652099086,452
1506652099094,447
1506652099102,450
1506652099110,449
1506652099118,449
1506652099122,451
1506652099131,448
1506652099139,453
1506652099147,453
1506652099155,457
1506652099163,466
1506652099172,470
1506652099180,483
1506652099189,490
1506652099196,498
1506652099204,510
1506652099213,513
1506652099221,520
1506652099229,522
1506652099237,522
1506652099245,523
1506652099253,517
1506652099261,515
1506652099270,507
1506652099278,499
1506652099282,493
1506652099290,481
1506652099298,476
1506652099306,467
1506652099315,458
1506652099323,456
1506652099331,447
1506652099339,446
1506652099347,443
1506652099356,441
1506652099364,442
1506652099372,440
1506652099380,445
1506652099388,447
1506652099396,449
1506652099405,457
1506652099413,457
1506652099421,464
1506652099429,468
1506652099437,470
1506652099441,475
1506652099450,475
1506652099458,479
1506652099466,479
1506652099474,479
1506652099482,483
1506652099491,479
1506652099499,482
1506652099507,481
1506652099515,477
1506652099524,479
1506652099532,475
1506652099540,476
1506652099548,475
1506652099556,474
1506652099565,477
1506652099573,473
1506652099581,475
1506652099589,474
1506652099597,472
1506652099601,475
1506652099609,470
1506652099617,472
1506652099626,470
1506652099634,465
1506652099642,467
1506652099650,462
1506652099659,462
1506652099667,459
1506652099675,456
1506652099683,458
1506652099691,453
1506652099699,457
1506652099708,461
1506652099717,469
1506652099725,490
1506652099733,512
1506652099741,548
1506652099749,592
1506652099757,639
1506652099761,690
1506652099769,734
1506652099777,778
1506652099786,811
1506652099793,829
1506652099802,844
1506652099810,837
1506652099818,825
1506652099827,801
1506652099835,766
1506652099843,733
1506652099851,690
1506652099859,651
1506652099868,610
1506652099876,572
1506652099884,542
1506652099893,510
1506652099901,491
1506652099909,475
1506652099917,461
1506652099921,459
1506652099929,453
1506652099937,455
1506652099945,458
1506652099953,456
1506652099961,461
1506652099969,458
1506652099978,459
1506652099986,459
1506652099994,455
1506652100002,459
1506652100010,456
1506652100019,461
1506652100027,467
1506652100035,471
1506652100043,482
1506652100051,488
1506652100060,497
1506652100069,503
1506652100076,506
1506652100084,514
1506652100088,512
1506652100097,514
1506652100105,511
1506652100113,503
1506652100121,502
1506652100130,493
1506652100137,487
1506652100146,480
1506652100154,470
1506652100162,466
1506652100170,456
1506652100178,452
1506652100186,447
1506652100195,440
1506652100203,442
1506652100211,436
1506652100220,435
1506652100228,438
1506652100236,437
1506652100245,442
1506652100249,442
1506652100257,448
1506652100265,453
1506652100273,455
1506652100282,463
1506652100290,463
1506652100298,469
1506652100306,471
1506652100314,470
1506652100322,474
1506652100331,474
1506652100339,474
1506652100347,476
1506652100355,473
1506652100363,477
1506652100372,472
1506652100380,474
1506652100388,475
1506652100396,471
1506652100404,475
1506652100408,470
1506652100416,471
1506652100425,472
1506652100433,466
1506652100441,468
1506652100449,465
1506652100457,464
1506652100466,464
1506652100474,461
1506652100482,465
1506652100490,462
1506652100498,464
1506652100507,466
1506652100515,464
1506652100523,470
1506652100531,468
1506652100539,468
1506652100548,470
1506652100556,467
1506652100564,470
1506652100568,467
1506652100576,467
1506652100585,467
1506652100593,462
1506652100601,464
1506652100609,459
1506652100617,460
1506652100625,463
1506652100634,465
1506652100642,478
1506652100650,494
1506652100658,521
1506652100666,559
1506652100674,598
1506652100683,650
1506652100691,699
1506652100699,747
1506652100707,791
1506652100715,818
1506652100723,842
1506652100728,848
1506652100736,844
1506652100744,830
1506652100752,801
1506652100760,770
1506652100769,730
1506652100777,689
1506652100785,648
1506652100793,605
1506652100801,572
1506652100809,537
1506652100818,511
1506652100827,491
1506652100835,472
1506652100842,465
1506652100850,458
1506652100859,458
1506652100867,461
1506652100875,461
1506652100883,467
1506652100887,467
1506652100895,467
1506652100904,469
1506652100912,464
1506652100920,466
1506652100929,464
1506652100936,463
1506652100945,468
1506652100953,469
1506652100961,477
1506652100969,481
1506652100977,488
1506652100986,496
1506652100994,498
1506652101002,505
1506652101010,508
1506652101018,509
1506652101027,511
1506652101035,505
1506652101043,504
1506652101047,498
1506652101055,492
1506652101063,489
1506652101071,477
1506652101080,474
1506652101088,467
1506652101096,459
1506652101104,457
1506652101112,448
1506652101121,446
1506652101129,441
1506652101137,439
1506652101145,443
1506652101153,440
1506652101161,449
1506652101170,447
1506652101178,446
1506652101186,451
1506652101194,454
1506652101202,461
1506652101206,461
1506652101215,463
1506652101223,469
1506652101231,472
1506652101239,475
1506652101247,473
1506652101255,473
1506652101264,477
1506652101272,477
1506652101280,483
1506652101288,484
1506652101296,479
1506652101305,479
1506652101313,479
1506652101321,479
1506652101330,477
1506652101337,474
1506652101346,478
1506652101354,471
1506652101363,469
1506652101367,466
1506652101375,463
1506652101383,466
1506652101392,462
1506652101400,465
1506652101408,463
1506652101416,463
1506652101424,466
1506652101432,463
1506652101441,466
1506652101449,465
1506652101457,464
1506652101465,466
1506652101473,462
1506652101481,464
1506652101490,462
1506652101498,460
1506652101506,461
1506652101514,458
1506652101522,462
1506652101527,465
1506652101535,472
1506652101543,489
1506652101551,507
1506652101559,540
1506652101568,579
1506652101576,621
1506652101584,672
1506652101592,715
1506652101600,759
1506652101608,792
1506652101616,813
1506652101625,827
1506652101633,822
1506652101641,811
1506652101649,789
1506652101658,756
1506652101666,723
1506652101674,680
1506652101682,640
1506652101686,601
1506652101696,561
1506652101703,533
1506652101711,502
1506652101719,483
1506652101727,467
1506652101736,455
1506652101744,453
1506652101752,447
1506652101760,451
1506652101768,452
1506652101776,451
1506652101785,456
1506652101793,453
1506652101801,454
1506652101809,453
1506652101817,453
1506652101826,458
1506652101833,460
1506652101842,469
1506652101846,477
1506652101854,482
1506652101862,495
1506652101870,500
1506652101880,508
1506652101887,514
1506652101895,516
1506652101903,521
1506652101911,518
1506652101919,517
1506652101928,512
1506652101936,505
1506652101944,502
1506652101952,494
1506652101960,492
1506652101969,481
1506652101977,468
1506652101985,464
1506652101993,453
1506652102001,449
1506652102009,445
1506652102014,439
1506652102022,441
1506652102031,437
1506652102038,440
1506652102046,442
1506652102054,442
1506652102063,449
1506652102071,448
1506652102079,455
1506652102087,460
1506652102095,462
1506652102104,470
1506652102112,470
1506652102120,474
1506652102129,477
1506652102137,477
1506652102145,482
1506652102153,479
1506652102161,482
1506652102169,482
1506652102173,478
1506652102181,482
1506652102190,478
1506652102198,478
1506652102206,478
1506652102214,475
1506652102223,478
1506652102231,475
1506652102239,476
1506652102247,475
1506652102255,472
1506652102263,475
1506652102272,470
1506652102280,471
1506652102288,470
1506652102296,466
1506652102304,466
1506652102312,462
1506652102321,461
1506652102329,460
1506652102334,456
1506652102341,459
1506652102349,455
1506652102357,456
1506652102366,460
1506652102374,463
1506652102382,478
1506652102390,493
1506652102398,519
1506652102407,556
1506652102415,595
1506652102424,645
1506652102432,690
1506652102439,735
1506652102448,775
1506652102456,801
1506652102464,824
1506652102472,828
1506652102480,823
1506652102488,808
1506652102493,780
1506652102501,750
1506652102509,710
1506652102517,670
1506652102526,631
1506652102534,589
1506652102542,558
1506652102550,523
1506652102558,499
1506652102566,481
1506652102574,464
1506652102583,459
1506652102591,453
1506652102599,452
1506652102608,455
1506652102616,453
1506652102625,458
1506652102633,455
1506652102640,454
1506652102648,454
1506652102652,449
1506652102660,453
1506652102669,451
1506652102677,456
1506652102685,464
1506652102693,468
1506652102701,481
1506652102710,488
1506652102718,497
1506652102726,507
1506652102734,511
1506652102742,518
1506652102751,516
1506652102759,516
1506652102767,515
1506652102775,507
1506652102783,504
1506652102792,495
1506652102800,487
1506652102808,481
1506652102812,470
1506652102820,465
1506652102829,456
1506652102837,452
1506652102845,449
1506652102853,443
1506652102861,443
1506652102869,438
1506652102877,437
1506652102886,440
1506652102894,439
1506652102902,445
1506652102910,446
1506652102918,450
1506652102927,455
1506652102935,457
1506652102943,464
1506652102951,466
1506652102960,469
1506652102968,475
1506652102972,474
1506652102980,479
1506652102988,479
1506652102997,479
1506652103005,483
1506652103013,480
1506652103021,482
1506652103030,478
1506652103038,478
1506652103046,478
1506652103054,473
1506652103062,476
1506652103071,472
1506652103079,470
1506652103087,473
1506652103095,471
1506652103103,473
1506652103112,472
1506652103120,470
1506652103128,472
1506652103132,467
1506652103140,469
1506652103148,465
1506652103156,463
1506652103165,464
1506652103173,459
1506652103181,461
1506652103189,458
1506652103197,455
1506652103206,458
1506652103214,455
1506652103222,461
1506652103230,465
1506652103238,477
1506652103247,499
1506652103255,525
1506652103263,565
1506652103271,612
1506652103279,659
1506652103287,709
1506652103292,755
1506652103300,793
1506652103308,819
1506652103316,837
1506652103325,844
1506652103333,831
1506652103341,814
1506652103349,784
1506652103357,752
1506652103365,718
1506652103373,673
1506652103382,636
1506652103390,596
1506652103398,559
1506652103406,530
1506652103414,500
1506652103423,478
1506652103431,458
1506652103439,446
1506652103447,444
1506652103451,439
1506652103460,444
1506652103468,445
1506652103476,445
1506652103484,449
1506652103492,444
1506652103500,446
1506652103508,445
1506652103517,443
1506652103526,447
1506652103533,447
1506652103541,456
1506652103550,463
1506652103558,469
1506652103566,483
1506652103574,489
1506652103582,500
1506652103591,507
1506652103599,510
1506652103607,516
1506652103611,513
1506652103619,513
1506652103628,509
1506652103636,501
1506652103644,498
1506652103652,487
1506652103660,481
1506652103668,472
1506652103676,462
1506652103685,458
1506652103693,449
1506652103701,446
1506652103709,441
1506652103717,436
1506652103726,438
1506652103734,434
1506652103742,436
1506652103750,437
1506652103758,438
1506652103766,445
1506652103771,445
1506652103779,452
1506652103787,457
1506652103795,459
1506652103803,468
1506652103812,468
1506652103820,473
1506652103828,474
1506652103836,474
1506652103844,479
1506652103853,476
1506652103861,479
1506652103869,479
1506652103877,475
1506652103885,479
1506652103893,474
1506652103902,476
1506652103910,475
1506652103918,472
1506652103927,474
1506652103935,470
1506652103938,471
1506652103946,468
1506652103955,465
1506652103963,468
1506652103971,463
1506652103979,464
1506652103987,464
1506652103996,461
1506652104004,466
1506652104012,463
1506652104020,465
1506652104029,466
1506652104037,464
1506652104045,468
1506652104053,465
1506652104061,467
1506652104069,467
1506652104078,463
1506652104086,466
1506652104094,461
1506652104098,461
1506652104106,461
1506652104114,456
1506652104123,458
1506652104131,455
1506652104139,459
1506652104147,466
1506652104155,477
1506652104165,502
1506652104173,527
1506652104181,568
1506652104189,615
1506652104197,663
1506652104205,716
1506652104214,760
1506652104222,799
1506652104230,828
1506652104238,841
1506652104247,848
1506652104254,835
1506652104259,817
1506652104267,789
1506652104275,749
1506652104283,714
1506652104291,668
1506652104299,627
1506652104308,590
1506652104316,551
1506652104324,524
1506652104332,497
1506652104340,480
1506652104349,468
1506652104357,457
1506652104365,458
1506652104373,458
1506652104381,460
1506652104389,465
1506652104398,463
1506652104406,467
1506652104414,463
1506652104419,461
1506652104426,460
1506652104434,455
1506652104443,457
1506652104451,454
1506652104459,458
1506652104467,463
1506652104475,466
1506652104484,476
1506652104492,479
1506652104500,486
1506652104508,494
1506652104516,496
1506652104525,502
1506652104533,501
1506652104541,503
1506652104549,501
1506652104557,495
1506652104566,494
1506652104574,486
1506652104578,481
1506652104586,475
1506652104595,466
1506652104603,463
1506652104611,455
1506652104619,450
1506652104627,447
1506652104635,440
1506652104643,441
1506652104652,436
1506652104660,437
1506652104668,439
1506652104676,437
1506652104685,444
1506652104693,444
1506652104701,447
1506652104709,453
1506652104717,453
1506652104725,460
1506652104733,461
1506652104738,464
1506652104747,469
1506652104754,468
1506652104762,473
1506652104771,472
1506652104779,474
1506652104787,476
1506652104795,472
1506652104803,474
1506652104811,471
1506652104819,470
1506652104828,471
1506652104836,467
1506652104844,470
1506652104852,466
1506652104860,465
1506652104869,465
1506652104877,462
1506652104885,465
1506652104893,462
1506652104897,461
1506652104906,461
1506652104914,457
1506652104922,461
1506652104930,459
1506652104938,459
1506652104946,461
1506652104954,460
1506652104962,463
1506652104970,463
1506652104979,464
1506652104987,468
1506652104995,466
1506652105003,470
1506652105011,469
1506652105019,469
1506652105028,472
1506652105036,468
1506652105045,471
1506652105053,468
1506652105057,467
1506652105065,469
1506652105073,464
1506652105081,465
1506652105090,462
1506652105098,461
1506652105106,463
1506652105114,461
1506652105122,473
1506652105131,485
1506652105139,507
1506652105147,542
1506652105156,580
1506652105164,631
1506652105172,683
1506652105180,731
1506652105188,779
1506652105196,814
1506652105204,842
1506652105212,852
1506652105217,851
1506652105225,841
1506652105233,813
1506652105241,784
1506652105249,744
1506652105257,700
1506652105266,658
1506652105273,612
1506652105282,575
1506652105290,538
1506652105298,507
1506652105306,484
1506652105315,462
1506652105324,454
1506652105332,446
1506652105339,445
1506652105347,449
1506652105355,450
1506652105364,457
1506652105371,460
1506652105376,460
1506652105384,463
1506652105392,461
1506652105400,463
1506652105409,461
1506652105418,460
1506652105426,465
1506652105434,465
1506652105442,473
1506652105450,477
1506652105459,482
1506652105467,492
1506652105475,495
1506652105483,502
1506652105491,504
1506652105500,505
1506652105508,509
1506652105516,504
1506652105524,503
1506652105532,498
1506652105540,490
1506652105545,488
1506652105553,478
1506652105561,473
1506652105569,466
1506652105577,458
1506652105585,455
1506652105594,448
1506652105602,448
1506652105610,443
1506652105618,439
1506652105627,441
1506652105635,438
1506652105643,441
1506652105651,442
1506652105659,443
1506652105668,449
1506652105676,449
1506652105684,456
1506652105692,459
1506652105700,462
1506652105705,469
1506652105712,469
1506652105720,475
1506652105729,477
1506652105737,478
1506652105745,482
1506652105753,479
1506652105761,482
1506652105770,482
1506652105778,479
1506652105786,481
1506652105794,477
1506652105802,479
1506652105811,477
1506652105819,474
1506652105827,477
1506652105835,473
1506652105844,473
1506652105852,473
1506652105859,469
1506652105864,472
1506652105872,467
1506652105880,468
1506652105888,468
1506652105897,466
1506652105905,470
1506652105913,466
1506652105921,468
1506652105929,468
1506652105938,466
1506652105946,470
1506652105954,467
1506652105962,468
1506652105970,468
1506652105978,465
1506652105987,468
1506652105995,462
1506652106003,464
1506652106011,462
1506652106019,459
1506652106023,464
1506652106032,465
1506652106040,475
1506652106048,490
1506652106056,510
1506652106065,546
1506652106073,583
1506652106081,630
1506652106089,679
1506652106097,722
1506652106106,768
1506652106114,798
1506652106122,822
1506652106130,833
1506652106138,826
1506652106146,815
1506652106154,786
1506652106163,753
1506652106171,715
1506652106179,669
1506652106183,628
1506652106191,583
1506652106199,546
1506652106208,511
1506652106216,480
1506652106225,461
1506652106233,441
1506652106241,432
1506652106249,428
1506652106257,425
1506652106266,431
1506652106274,431
1506652106282,436
1506652106290,440
1506652106298,440
1506652106306,446
1506652106314,445
1506652106323,450
1506652106331,455
1506652106339,457
1506652106343,468
1506652106351,473
1506652106359,482
1506652106367,492
1506652106375,499
1506652106384,509
1506652106392,513
1506652106400,518
1506652106408,521
1506652106416,517
1506652106425,520
1506652106433,511
1506652106441,506
1506652106449,500
1506652106457,488
1506652106465,482
1506652106474,471
1506652106482,462
1506652106490,457
1506652106498,447
1506652106502,446
1506652106510,437
1506652106519,436
1506652106527,435
1506652106535,430
1506652106543,435
1506652106551,434
1506652106559,437
1506652106568,442
1506652106576,443
1506652106584,450
1506652106592,452
1506652106600,458
1506652106609,464
1506652106617,466
1506652106626,474
1506652106634,474
1506652106641,477
1506652106650,482
1506652106658,480
1506652106662,484
1506652106671,483
1506652106679,482
1506652106687,483
1506652106696,479
1506652106704,483
1506652106712,479
1506652106720,479
1506652106728,479
1506652106737,474
1506652106745,478
1506652106753,474
1506652106761,474
1506652106769,477
1506652106777,472
1506652106786,475
1506652106794,472
1506652106802,472
1506652106810,473
1506652106818,467
1506652106822,471
1506652106831,466
1506652106839,464
1506652106847,464
1506652106855,459
1506652106863,461
1506652106872,458
1506652106880,456
1506652106888,459
1506652106896,460
1506652106904,472
1506652106912,484
1506652106921,508
1506652106929,543
1506652106937,580
1506652106945,630
1506652106953,677
1506652106961,724
1506652106970,768
1506652106978,798
1506652106982,825
1506652106990,834
1506652106998,831
1506652107007,820
1506652107015,792
1506652107023,763
1506652107031,724
1506652107039,680
1506652107047,640
1506652107056,593
1506652107064,557
1506652107072,520
1506652107080,489
1506652107088,468
1506652107097,447
1506652107105,439
1506652107113,430
1506652107121,428
1506652107129,432
1506652107138,431
1506652107142,438
1506652107150,439
1506652107158,440
1506652107166,445
1506652107174,442
1506652107182,447
1506652107191,449
1506652107199,451
1506652107207,460
1506652107215,462
1506652107223,475
1506652107232,483
1506652107240,491
1506652107248,503
1506652107256,507
1506652107264,515
1506652107272,517
1506652107281,518
1506652107289,519
1506652107297,512
1506652107301,510
1506652107310,501
1506652107318,493
1506652107326,487
1506652107334,475
1506652107342,470
1506652107350,461
1506652107358,453
1506652107366,449
1506652107375,440
1506652107383,439
1506652107391,435
1506652107399,432
1506652107407,435
1506652107416,432
1506652107424,438
1506652107433,439
1506652107441,442
1506652107449,451
1506652107457,451
1506652107465,458
1506652107469,462
1506652107478,465
1506652107486,472
1506652107494,472
1506652107502,477
1506652107510,478
1506652107518,478
1506652107527,482
1506652107535,479
1506652107542,484
1506652107551,482
1506652107559,480
1506652107568,482
1506652107576,478
1506652107584,479
1506652107593,476
1506652107601,474
1506652107609,475
1506652107617,471
1506652107625,473
1506652107629,471
1506652107638,468
1506652107647,473
1506652107654,469
1506652107662,471
1506652107671,470
1506652107679,467
1506652107687,470
1506652107695,466
1506652107703,467
1506652107711,466
1506652107719,464
1506652107728,466
1506652107736,460
1506652107744,464
1506652107752,462
1506652107760,456
1506652107769,459
1506652107777,457
1506652107785,461
1506652107789,470
1506652107797,484
1506652107805,512
1506652107813,541
1506652107822,587
1506652107830,637
1506652107839,688
1506652107847,743
1506652107855,785
1506652107863,822
1506652107871,847
1506652107879,856
1506652107887,859
1506652107895,842
1506652107904,818
1506652107912,785
1506652107920,742
1506652107928,701
1506652107936,652
1506652107944,610
1506652107948,569
1506652107957,529
1506652107965,500
1506652107973,472
1506652107981,454
1506652107990,442
1506652107998,433
1506652108006,434
1506652108014,432
1506652108023,437
1506652108031,442
1506652108039,444
1506652108047,451
1506652108055,450
1506652108063,451
1506652108071,453
1506652108079,451
1506652108088,457
1506652108096,457
1506652108104,463
1506652108108,470
1506652108116,475
1506652108125,487
1506652108133,492
1506652108141,501
1506652108149,507
1506652108157,509
1506652108166,516
1506652108174,513
1506652108182,513
1506652108191,511
1506652108198,504
1506652108207,501
1506652108214,490
1506652108223,483
1506652108231,475
1506652108240,464
1506652108247,461
1506652108255,450
1506652108263,446
1506652108268,441
1506652108276,434
1506652108284,435
1506652108292,433
1506652108301,432
1506652108309,435
1506652108317,434
1506652108325,442
1506652108334,442
1506652108342,447
1506652108350,453
1506652108358,454
1506652108366,462
1506652108374,463
1506652108383,467
1506652108391,472
1506652108399,472
1506652108407,477
1506652108415,476
1506652108423,479
1506652108428,479
1506652108436,476
1506652108444,480
1506652108452,476
1506652108460,479
1506652108468,478
1506652108477,474
1506652108485,476
1506652108493,472
1506652108501,471
1506652108509,472
1506652108517,468
1506652108527,471
1506652108535,468
1506652108542,467
1506652108550,468
1506652108559,465
1506652108567,470
1506652108575,467
1506652108583,467
1506652108587,468
1506652108595,465
1506652108604,469
1506652108612,467
1506652108620,467
1506652108629,468
1506652108637,465
1506652108644,467
1506652108653,463
1506652108661,462
1506652108669,464
1506652108677,459
1506652108686,464
1506652108694,463
1506652108702,472
1506652108710,490
1506652108718,510
1506652108728,548
1506652108736,590
1506652108743,641
1506652108747,696
1506652108755,744
1506652108763,793
1506652108771,827
1506652108779,851
1506652108788,864
1506652108796,859
1506652108804,848
1506652108812,820
1506652108821,784
1506652108829,746
1506652108837,697
1506652108845,655
1506652108853,607
1506652108861,565
1506652108870,530
1506652108878,495
1506652108886,473
1506652108894,452
1506652108902,439
1506652108907,435
1506652108915,429
1506652108923,434
1506652108932,436
1506652108940,440
1506652108947,445
1506652108956,446
1506652108964,451
1506652108972,450
1506652108980,450
1506652108988,454
1506652108996,452
1506652109006,459
1506652109014,462
1506652109022,467
1506652109030,478
1506652109039,482
1506652109047,493
1506652109055,499
1506652109063,504
1506652109067,511
1506652109075,510
1506652109083,513
1506652109092,510
1506652109100,506
1506652109108,503
1506652109116,493
1506652109125,489
1506652109132,480
1506652109141,472
1506652109149,466
1506652109157,455
1506652109165,452
1506652109173,444
1506652109182,439
1506652109190,438
1506652109198,431
1506652109206,432
1506652109214,431
1506652109222,431
1506652109227,436
1506652109235,435
1506652109243,443
1506652109251,445
1506652109259,450
1506652109268,456
1506652109276,458
1506652109284,466
1506652109292,468
1506652109300,470
1506652109308,476
1506652109317,475
1506652109325,479
1506652109333,480
1506652109341,478
1506652109349,482
1506652109357,479
1506652109366,481
1506652109374,479
1506652109382,477
1506652109386,479
1506652109394,474
1506652109402,474
1506652109411,472
1506652109419,469
1506652109427,471
1506652109435,466
1506652109443,468
1506652109452,467
1506652109460,465
1506652109468,468
1506652109476,464
1506652109485,467
1506652109492,466
1506652109501,463
1506652109509,466
1506652109517,461
1506652109525,462
1506652109533,461
1506652109542,457
1506652109550,458
1506652109554,454
1506652109562,454
1506652109570,453
1506652109578,452
1506652109587,460
1506652109595,465
1506652109603,481
1506652109611,503
1506652109619,533
1506652109628,577
1506652109636,621
1506652109644,674
1506652109652,723
1506652109660,766
1506652109668,806
1506652109677,829
1506652109685,845
1506652109693,846
1506652109701,831
1506652109709,812
1506652109713,775
1506652109722,738
1506652109730,696
1506652109739,649
1506652109746,609
1506652109755,563
1506652109763,527
1506652109771,496
1506652109779,467
1506652109787,451
1506652109795,435
1506652109804,430
1506652109812,428
1506652109820,426
1506652109829,432
1506652109837,431
1506652109845,436
1506652109853,439
1506652109861,438
1506652109869,443
1506652109873,443
1506652109881,449
1506652109890,455
1506652109898,460
1506652109906,473
1506652109914,480
1506652109922,493
1506652109931,505
1506652109939,512
1506652109947,523
1506652109955,526
1506652109963,530
1506652109971,531
1506652109979,527
1506652109988,526
1506652109996,517
1506652110005,511
1506652110012,502
1506652110020,489
1506652110029,484
1506652110034,470
1506652110042,462
1506652110049,454
1506652110057,444
1506652110066,443
1506652110074,434
1506652110082,433
1506652110090,432
1506652110098,429
1506652110106,434
1506652110115,432
1506652110123,436
1506652110132,441
1506652110140,442
1506652110148,449
1506652110156,451
1506652110165,457
1506652110173,462
1506652110181,463
1506652110189,471
1506652110193,470
1506652110202,474
1506652110210,478
1506652110218,475
1506652110226,480
1506652110234,477
1506652110242,478
1506652110250,480
1506652110259,477
1506652110267,480
1506652110275,477
1506652110283,477
1506652110291,478
1506652110300,474
1506652110308,478
1506652110316,473
1506652110324,472
1506652110332,472
1506652110341,468
1506652110349,468
1506652110353,464
1506652110361,463
1506652110370,461
1506652110378,455
1506652110386,457
1506652110394,451
1506652110402,450
1506652110410,452
1506652110418,451
1506652110426,460
1506652110435,469
1506652110443,490
1506652110451,521
1506652110459,557
1506652110468,607
1506652110476,656
1506652110484,708
1506652110492,757
1506652110500,792
1506652110508,826
1506652110513,841
1506652110521,845
1506652110529,838
1506652110537,814
1506652110545,786
1506652110553,748
1506652110562,705
1506652110570,664
1506652110578,617
1506652110586,578
1506652110594,538
1506652110603,505
1506652110611,480
1506652110619,455
1506652110627,445
1506652110635,434
1506652110643,432
1506652110652,434
1506652110660,431
1506652110668,437
1506652110673,436
1506652110681,436
1506652110689,438
1506652110697,435
1506652110706,440
1506652110714,440
1506652110722,445
1506652110730,453
1506652110738,457
1506652110746,470
1506652110754,478
1506652110762,489
1506652110770,501
1506652110778,506
1506652110787,515
1506652110795,517
1506652110803,518
1506652110811,519
1506652110819,511
1506652110827,508
1506652110832,499
1506652110840,488
1506652110849,481
1506652110857,468
1506652110865,461
1506652110873,450
1506652110881,441
1506652110890,436
1506652110898,426
1506652110907,426
1506652110914,420
1506652110922,418
1506652110930,420
1506652110938,417
1506652110947,422
1506652110954,425
1506652110963,429
1506652110971,436
1506652110979,438
1506652110987,447
1506652110991,450
1506652111000,455
1506652111008,463
1506652111016,463
1506652111024,470
1506652111032,470
1506652111040,472
1506652111049,477
1506652111057,475
1506652111065,478
1506652111073,477
1506652111082,476
1506652111090,478
1506652111098,474
1506652111106,476
1506652111114,473
1506652111122,471
1506652111131,471
1506652111139,464
1506652111147,464
1506652111151,461
1506652111159,457
1506652111167,456
1506652111176,449
1506652111184,453
1506652111192,452
1506652111201,447
1506652111209,447
1506652111217,443
1506652111225,450
1506652111233,458
1506652111241,473
1506652111249,501
1506652111258,531
1506652111266,578
1506652111274,626
1506652111282,679
1506652111290,734
1506652111299,778
1506652111307,819
1506652111315,846
1506652111319,857
1506652111327,862
1506652111335,846
1506652111344,825
1506652111352,793
1506652111360,752
1506652111368,712
1506652111376,664
1506652111385,623
1506652111393,581
1506652111401,542
1506652111409,514
1506652111417,484
1506652111425,467
1506652111433,453
1506652111442,442
1506652111450,442
1506652111458,436
1506652111466,438
1506652111474,437
1506652111478,436
1506652111487,439
1506652111495,434
1506652111503,437
1506652111512,436
1506652111519,436
1506652111528,444
1506652111536,446
1506652111544,456
1506652111552,465
1506652111560,472
1506652111570,485
1506652111578,491
1506652111586,501
1506652111594,505
1506652111603,506
1506652111610,511
1506652111618,505
1506652111626,503
1506652111634,498
1506652111638,489
1506652111646,484
1506652111655,473
1506652111663,466
1506652111671,456
1506652111679,445
1506652111687,441
1506652111696,431
1506652111704,428
1506652111712,423
1506652111720,417
1506652111728,420
1506652111736,417
1506652111745,420
1506652111753,421
1506652111761,422
1506652111769,429
1506652111777,430
1506652111786,436
1506652111794,441
1506652111798,444
1506652111807,452
1506652111815,452
1506652111823,458
1506652111832,461
1506652111840,462
1506652111848,467
1506652111856,466
1506652111864,468
1506652111873,469
1506652111881,467
1506652111889,470
1506652111897,466
1506652111905,468
1506652111913,467
1506652111922,464
1506652111930,467
1506652111938,464
1506652111946,466
1506652111954,466
1506652111959,463
1506652111967,465
1506652111975,460
1506652111983,460
1506652111991,458
1506652111999,453
1506652112008,456
1506652112016,449
1506652112024,447
1506652112032,446
1506652112040,439
1506652112049,442
1506652112057,438
1506652112065,440
1506652112073,445
1506652112081,453
1506652112090,473
1506652112098,496
1506652112106,533
1506652112114,580
1506652112118,631
1506652112126,693
1506652112134,748
1506652112143,804
1506652112151,851
1506652112159,881
1506652112167,904
1506652112175,907
1506652112184,898
1506652112192,878
1506652112200,844
1506652112208,808
1506652112216,762
1506652112225,716
1506652112233,672
1506652112241,624
1506652112249,589
1506652112257,551
1506652112265,523
1506652112273,501
1506652112278,481
1506652112286,475
1506652112294,466
1506652112302,464
1506652112310,466
1506652112319,463
1506652112327,466
1506652112335,461
1506652112343,460
1506652112352,458
1506652112359,452
1506652112368,455
1506652112376,452
1506652112384,455
1506652112392,462
1506652112401,465
1506652112409,476
1506652112417,482
1506652112425,490
1506652112433,499
1506652112437,501
1506652112446,509
1506652112454,508
1506652112462,508
1506652112470,506
1506652112478,497
1506652112487,495
1506652112495,484
1506652112503,475
1506652112511,467
1506652112519,455
1506652112527,448
1506652112535,437
1506652112544,429
1506652112552,425
1506652112560,416
1506652112568,416
1506652112576,411
1506652112585,409
1506652112593,412
1506652112597,410
1506652112606,416
1506652112614,417
1506652112621,421
1506652112630,428
1506652112638,430
1506652112646,439
1506652112654,441
1506652112662,447
1506652112671,453
1506652112679,453
1506652112687,460
1506652112695,460
1506652112704,462
1506652112712,466
1506652112720,463
1506652112728,466
1506652112736,463
1506652112744,465
1506652112752,465
1506652112757,459
1506652112765,461
1506652112773,456
1506652112781,454
1506652112789,455
1506652112797,451
1506652112806,453
1506652112814,450
1506652112822,448
1506652112830,450
1506652112838,446
1506652112847,450
1506652112855,447
1506652112863,447
1506652112871,449
1506652112879,444
1506652112888,447
1506652112896,444
1506652112905,442
1506652112912,444
1506652112916,440
1506652112924,442
1506652112933,439
1506652112942,440
1506652112950,444
1506652112958,442
1506652112966,452
1506652112974,464
1506652112983,485
1506652112991,518
1506652112999,557
1506652113007,611
1506652113015,669
1506652113023,731
1506652113031,794
1506652113039,846
1506652113047,893
1506652113055,912
1506652113064,913
1506652113072,913
1506652113076,913
1506652113084,894
1506652113092,857
1506652113101,812
1506652113109,767
1506652113117,713
1506652113125,667
1506652113133,620
1506652113141,577
1506652113150,545
1506652113158,512
1506652113167,492
1506652113175,476
1506652113183,463
1506652113191,462
1506652113200,456
1506652113208,458
1506652113216,457
1506652113224,455
1506652113232,456
1506652113237,450
1506652113245,449
1506652113253,446
1506652113261,443
1506652113270,447
1506652113277,446
1506652113286,453
1506652113294,460
1506652113302,466
1506652113310,477
1506652113318,482
1506652113326,491
1506652113335,496
1506652113343,497
1506652113351,501
1506652113359,496
1506652113368,495
1506652113376,490
1506652113384,480
1506652113392,475
1506652113400,463
1506652113404,455
1506652113412,445
1506652113421,434
1506652113429,430
1506652113437,418
1506652113446,414
1506652113454,409
1506652113461,403
1506652113470,405
1506652113478,402
1506652113486,404
1506652113494,406
1506652113502,407
1506652113511,415
1506652113519,416
1506652113527,423
1506652113535,427
1506652113543,431
1506652113552,439
1506652113559,440
1506652113564,447
1506652113572,451
1506652113580,452
1506652113588,459
1506652113597,458
1506652113605,460
1506652113613,461
1506652113622,458
1506652113630,462
1506652113637,458
1506652113646,459
1506652113654,457
1506652113662,455
1506652113670,457
1506652113678,453
1506652113687,454
1506652113695,453
1506652113703,450
1506652113711,453
1506652113719,450
1506652113723,451
1506652113732,451
1506652113740,448
1506652113748,450
1506652113756,445
1506652113764,446
1506652113772,445
1506652113781,442
1506652113789,444
1506652113797,440
1506652113806,440
1506652113814,441
1506652113822,438
1506652113830,444
1506652113838,446
1506652113846,457
1506652113854,474
1506652113863,498
1506652113871,538
1506652113879,580
1506652113883,637
1506652113891,699
1506652113899,755
1506652113908,817
1506652113916,862
1506652113924,898
1506652113932,913
1506652113940,913
1506652113948,913
1506652113957,889
1506652113966,856
1506652113973,815
1506652113981,764
1506652113990,718
1506652113998,665
1506652114006,617
1506652114014,575
1506652114022,534
1506652114030,507
1506652114038,480
1506652114043,463
1506652114051,455
1506652114059,447
1506652114067,449
1506652114075,446
1506652114084,447
1506652114092,449
1506652114101,445
1506652114109,447
1506652114116,443
1506652114125,443
1506652114133,446
1506652114142,447
1506652114150,455
1506652114157,459
1506652114166,471
1506652114174,483
1506652114182,489
1506652114190,502
1506652114198,506
1506652114203,511
1506652114211,516
1506652114219,512
1506652114227,512
1506652114235,504
1506652114243,498
1506652114251,490
1506652114259,476
1506652114268,469
1506652114276,456
1506652114284,445
1506652114292,437
1506652114301,426
1506652114309,422
1506652114317,413
1506652114327,408
1506652114334,406
1506652114342,402
1506652114351,405
1506652114359,404
1506652114363,408
1506652114371,414
1506652114379,414
1506652114388,423
1506652114396,427
1506652114404,434
1506652114412,442
1506652114420,444
1506652114428,451
1506652114437,452
1506652114445,456
1506652114453,459
1506652114461,458
1506652114469,462
1506652114477,460
1506652114487,461
1506652114494,463
1506652114503,460
1506652114510,464
1506652114518,461
1506652114522,460
1506652114531,462
1506652114539,459
1506652114547,461
1506652114555,456
1506652114563,455
1506652114572,455
1506652114580,448
1506652114588,450
1506652114596,445
1506652114605,443
1506652114612,442
1506652114621,436
1506652114629,436
1506652114637,434
1506652114647,434
1506652114653,440
1506652114662,446
1506652114670,465
1506652114678,488
1506652114682,522
1506652114690,571
1506652114698,622
1506652114707,687
1506652114715,747
1506652114723,804
1506652114731,856
1506652114739,890
1506652114748,912
1506652114756,913
1506652114764,913
1506652114772,894
1506652114780,858
1506652114789,822
1506652114797,776
1506652114805,727
1506652114813,684
1506652114821,634
1506652114829,594
1506652114837,558
1506652114842,526
1506652114850,504
1506652114858,483
1506652114866,474
1506652114874,465
1506652114883,459
1506652114891,461
1506652114899,455
1506652114907,455
1506652114915,450
1506652114923,443
1506652114932,443
1506652114940,437
1506652114948,439
1506652114956,441
1506652114965,444
1506652114972,455
1506652114981,461
1506652114989,474
1506652114997,484
1506652115002,491
1506652115010,503
1506652115018,504
1506652115026,510
1506652115034,509
1506652115042,504
1506652115050,501
1506652115059,491
1506652115067,485
1506652115075,473
1506652115083,461
1506652115091,453
1506652115099,439
1506652115108,432
1506652115116,424
1506652115124,413
1506652115132,411
1506652115140,403
1506652115148,402
1506652115157,401
1506652115161,399
1506652115169,405
1506652115177,405
1506652115185,412
1506652115194,416
1506652115202,419
1506652115210,429
1506652115218,434
1506652115226,440
1506652115235,446
1506652115243,449
1506652115251,456
1506652115259,456
1506652115267,462
1506652115275,464
1506652115284,463
1506652115292,467
1506652115300,467
1506652115309,472
1506652115317,470
1506652115321,465
1506652115329,466
1506652115337,462
1506652115345,462
1506652115353,461
1506652115362,456
1506652115370,456
1506652115378,451
1506652115386,449
1506652115394,446
1506652115403,440
1506652115411,441
1506652115419,434
1506652115427,434
1506652115435,432
1506652115443,429
1506652115452,435
1506652115460,440
1506652115468,455
1506652115476,477
1506652115484,506
1506652115488,553
1506652115497,603
1506652115506,665
1506652115513,729
1506652115521,789
1506652115529,848
1506652115538,891
1506652115546,913
1506652115554,913
1506652115562,913
1506652115570,913
1506652115578,899
1506652115587,865
1506652115595,825
1506652115604,777
1506652115612,733
1506652115619,684
1506652115628,642
1506652115636,604
1506652115644,568
1506652115648,544
1506652115656,522
1506652115664,508
1506652115673,499
1506652115681,489
1506652115689,487
1506652115697,480
1506652115706,474
1506652115714,469
1506652115722,458
1506652115730,454
1506652115738,445
1506652115746,440
1506652115754,439
1506652115763,437
1506652115771,444
1506652115779,448
1506652115787,458
1506652115795,469
1506652115804,476
1506652115808,489
1506652115816,494
1506652115825,498
1506652115833,503
1506652115841,498
1506652115850,498
1506652115858,490
1506652115866,483
1506652115874,475
1506652115882,461
1506652115891,454
1506652115899,440
1506652115907,430
1506652115915,422
1506652115923,410
1506652115931,407
1506652115940,398
1506652115948,394
1506652115956,393
1506652115964,388
1506652115969,392
1506652115977,392
1506652115985,395
1506652115993,402
1506652116001,405
1506652116009,414
1506652116017,418
1506652116026,424
1506652116034,432
1506652116042,434
1506652116050,441
1506652116058,443
1506652116067,446
1506652116075,451
1506652116083,450
1506652116091,454
1506652116099,453
1506652116108,453
1506652116116,455
1506652116124,452
1506652116128,455
1506652116136,452
1506652116144,451
1506652116153,452
1506652116161,447
1506652116169,449
1506652116177,446
1506652116185,444
1506652116193,444
1506652116202,438
1506652116210,438
1506652116218,433
1506652116227,431
1506652116234,431
1506652116243,425
1506652116251,426
1506652116259,424
1506652116267,424
1506652116275,430
1506652116283,436
1506652116288,457
1506652116296,481
1506652116304,520
1506652116312,571
1506652116320,628
1506652116329,697
1506652116337,764
1506652116345,830
1506652116353,889
1506652116361,912
1506652116369,913
1506652116378,913
1506652116386,913
1506652116394,913
1506652116402,913
1506652116410,888
1506652116419,842
1506652116427,792
1506652116435,745
1506652116443,692
1506652116447,649
1506652116455,606
1506652116464,569
1506652116473,543
1506652116480,517
1506652116488,503
1506652116496,490
1506652116505,480
1506652116513,475
1506652116521,464
1506652116529,459
1506652116537,449
1506652116546,440
1506652116553,436
1506652116562,425
1506652116570,424
1506652116578,421
1506652116586,422
1506652116595,432
1506652116603,439
1506652116607,453
1506652116616,464
1506652116623,475
1506652116631,487
1506652116640,492
1506652116648,499
1506652116657,500
1506652116664,497
1506652116672,495
1506652116681,484
1506652116689,478
1506652116697,466
1506652116706,454
1506652116714,446
1506652116721,432
1506652116730,424
1506652116738,413
1506652116746,404
1506652116754,402
1506652116762,393
1506652116766,400
1506652116775,397
1506652116783,394
1506652116791,399
1506652116799,399
1506652116808,407
1506652116816,410
1506652116824,416
1506652116833,422
1506652116841,421
1506652116849,429
1506652116857,434
1506652116865,436
1506652116873,443
1506652116881,442
1506652116889,447
1506652116897,450
1506652116906,450
1506652116914,454
1506652116922,451
1506652116926,455
1506652116934,455
1506652116943,453
1506652116951,454
1506652116959,448
1506652116967,448
1506652116975,445
1506652116983,439
1506652116991,439
1506652117000,432
1506652117009,430
1506652117017,426
1506652117025,422
1506652117033,423
1506652117041,418
1506652117049,422
1506652117057,428
1506652117066,438
1506652117074,460
1506652117081,485
1506652117086,527
1506652117094,579
1506652117102,639
1506652117111,708
1506652117119,771
1506652117127,834
1506652117135,886
1506652117143,913
1506652117151,913
1506652117159,913
1506652117168,913
1506652117177,913
1506652117185,891
1506652117193,852
1506652117201,800
1506652117210,752
1506652117218,704
1506652117225,655
1506652117233,617
1506652117242,577
1506652117249,549
1506652117254,526
1506652117262,506
1506652117270,497
1506652117278,485
1506652117286,480
1506652117294,474
1506652117303,464
1506652117311,458
1506652117319,446
1506652117327,438
1506652117335,430
1506652117344,420
1506652117352,420
1506652117360,415
1506652117368,421
1506652117376,431
1506652117385,438
1506652117393,452
1506652117401,461
1506652117409,474
1506652117414,483
1506652117422,487
1506652117431,494
1506652117439,491
1506652117447,490
1506652117455,486
1506652117463,476
1506652117471,470
1506652117480,456
1506652117488,447
1506652117496,438
1506652117504,424
1506652117512,418
1506652117521,406
1506652117529,400
1506652117537,395
1506652117545,387
1506652117553,388
1506652117562,383
1506652117570,385
1506652117574,388
1506652117582,387
1506652117590,394
1506652117598,396
1506652117607,402
1506652117615,410
1506652117623,413
1506652117631,423
1506652117639,425
1506652117648,433
1506652117656,440
1506652117664,441
1506652117672,450
1506652117680,450
1506652117689,453
1506652117697,456
1506652117705,453
1506652117713,455
1506652117721,452
1506652117729,449
1506652117733,449
1506652117742,443
1506652117750,443
1506652117758,436
1506652117767,433
1506652117774,432
1506652117783,427
1506652117791,432
1506652117799,435
1506652117807,445
1506652117815,466
1506652117824,492
1506652117832,537
1506652117840,587
1506652117848,649
1506652117856,718
1506652117865,779
1506652117873,843
1506652117881,889
1506652117889,913
1506652117893,913
1506652117901,913
1506652117910,913
1506652117918,913
1506652117926,878
1506652117934,839
1506652117942,791
1506652117951,747
1506652117959,698
1506652117967,653
1506652117975,614
1506652117983,574
1506652117991,548
1506652118000,522
1506652118008,505
1506652118016,494
1506652118024,481
1506652118032,476
1506652118040,466
1506652118049,458
1506652118053,453
1506652118061,440
1506652118069,435
1506652118077,424
1506652118086,417
1506652118094,417
1506652118102,414
1506652118110,420
1506652118118,425
1506652118126,433
1506652118135,445
1506652118143,451
1506652118151,463
1506652118159,469
1506652118167,475
1506652118176,480
1506652118184,476
1506652118192,477
1506652118200,471
1506652118209,463
1506652118213,457
1506652118220,445
1506652118229,438
1506652118237,426
1506652118245,415
1506652118253,410
1506652118261,397
1506652118270,394
1506652118278,387
1506652118286,382
1506652118294,382
1506652118302,378
1506652118311,382
1506652118319,383
1506652118327,385
1506652118335,391
1506652118343,393
1506652118352,403
1506652118360,409
1506652118368,414
1506652118372,423
1506652118380,426
1506652118388,435
1506652118397,440
1506652118406,442
1506652118413,449
1506652118421,447
1506652118429,450
1506652118437,449
1506652118446,447
1506652118454,448
1506652118462,441
1506652118470,441
1506652118478,436
1506652118487,430
1506652118495,430
1506652118503,422
1506652118512,422
1506652118519,420
1506652118527,421
1506652118532,430
1506652118540,439
1506652118548,464
1506652118556,498
1506652118565,542
1506652118573,603
1506652118581,665
1506652118589,736
1506652118597,803
1506652118606,859
1506652118614,909
1506652118622,913
1506652118630,913
1506652118638,913
1506652118647,913
1506652118655,913
1506652118663,884
1506652118671,844
1506652118679,797
1506652118687,746
1506652118695,700
1506652118700,650
1506652118708,609
1506652118717,573
1506652118725,541
1506652118733,520
1506652118741,499
1506652118749,488
1506652118758,476
1506652118766,465
1506652118774,458
1506652118782,446
1506652118790,437
1506652118799,427
1506652118807,416
1506652118815,413
1506652118823,406
1506652118831,406
1506652118839,408
1506652118848,412
1506652118856,424
1506652118860,430
1506652118868,442
1506652118876,453
1506652118885,458
1506652118893,469
1506652118901,471
1506652118909,474
1506652118917,475
1506652118926,469
1506652118934,468
1506652118942,458
1506652118950,451
1506652118958,442
1506652118966,430
1506652118975,423
1506652118983,410
1506652118991,403
1506652118999,395
1506652119007,384
1506652119015,382
1506652119020,375
1506652119029,374
1506652119036,373
1506652119045,371
1506652119052,376
1506652119061,376
1506652119069,382
1506652119077,387
1506652119085,390
1506652119093,400
1506652119101,403
1506652119110,410
1506652119118,416
1506652119126,420
1506652119134,429
1506652119142,430
1506652119150,434
1506652119159,437
1506652119167,436
1506652119175,440
1506652119179,436
1506652119187,436
1506652119196,435
1506652119204,429
1506652119212,429
1506652119219,422
1506652119229,419
1506652119237,416
1506652119245,411
1506652119253,412
1506652119261,410
1506652119269,416
1506652119277,429
1506652119286,448
1506652119294,484
1506652119302,526
1506652119310,584
1506652119318,650
1506652119327,716
1506652119335,787
1506652119339,844
1506652119347,892
1506652119355,913
1506652119364,913
1506652119372,913
1506652119380,913
1506652119389,912
1506652119396,874
1506652119405,828
1506652119413,784
1506652119421,731
1506652119429,681
1506652119437,634
1506652119445,588
1506652119453,552
1506652119462,517
1506652119470,491
1506652119478,473
1506652119486,454
1506652119494,447
1506652119498,434
1506652119507,426
1506652119515,419
1506652119523,409
1506652119531,405
1506652119539,397
1506652119548,395
1506652119556,396
1506652119564,396
1506652119572,405
1506652119580,410
1506652119589,421
1506652119597,434
1506652119605,441
1506652119613,455
1506652119621,461
1506652119629,468
1506652119638,473
1506652119646,472
1506652119654,474
1506652119658,468
1506652119667,463
1506652119674,456
1506652119683,445
1506652119691,437
1506652119699,425
1506652119708,414
1506652119716,405
1506652119725,391
1506652119732,385
1506652119740,375
1506652119748,368
1506652119757,367
1506652119765,360
1506652119773,361
1506652119781,359
1506652119789,362
1506652119797,366
1506652119806,368
1506652119814,378
1506652119818,381
1506652119826,386
1506652119834,395
1506652119842,397
1506652119851,405
1506652119859,409
1506652119867,413
1506652119875,419
1506652119883,420
1506652119891,426
1506652119900,426
1506652119909,428
1506652119917,432
1506652119925,430
1506652119932,434
1506652119941,432
1506652119949,431
1506652119957,432
1506652119965,428
1506652119973,428
1506652119977,425
1506652119986,422
1506652119994,422
1506652120002,416
1506652120011,416
1506652120019,411
1506652120027,407
1506652120035,408
1506652120043,403
1506652120051,408
1506652120059,413
1506652120067,425
1506652120076,449
1506652120084,480
1506652120093,528
1506652120101,584
1506652120109,648
1506652120117,718
1506652120125,778
1506652120133,837
1506652120137,881
1506652120145,910
1506652120154,913
1506652120162,913
1506652120170,913
1506652120178,887
1506652120186,851
1506652120194,811
1506652120202,760
1506652120211,714
1506652120219,664
1506652120228,615
1506652120236,575
1506652120244,534
1506652120253,505
1506652120261,478
1506652120269,456
1506652120277,443
1506652120286,428
1506652120293,422
1506652120297,412
1506652120306,404
1506652120314,402
1506652120322,394
1506652120330,396
1506652120339,396
1506652120347,398
1506652120355,407
1506652120363,411
1506652120371,423
1506652120379,433
1506652120388,442
1506652120396,456
1506652120404,461
1506652120412,471
1506652120420,476
1506652120429,477
1506652120437,481
1506652120446,475
1506652120454,473
1506652120457,467
1506652120465,458
1506652120474,452
1506652120482,440
1506652120490,433
1506652120498,423
1506652120506,412
1506652120515,407
1506652120523,395
1506652120531,391
1506652120539,386
1506652120547,379
1506652120556,380
1506652120564,376
1506652120572,377
1506652120580,378
1506652120588,379
1506652120596,385
1506652120605,387
1506652120613,393
1506652120621,397
1506652120625,400
1506652120633,409
1506652120641,410
1506652120650,417
1506652120658,421
1506652120666,422
1506652120674,428
1506652120682,427
1506652120690,430
1506652120699,431
1506652120707,428
1506652120715,432
1506652120723,428
1506652120732,430
1506652120740,430
1506652120748,426
1506652120756,429
1506652120764,424
1506652120772,425
1506652120780,424
1506652120785,421
1506652120793,423
1506652120801,419
1506652120809,421
1506652120817,422
1506652120826,420
1506652120834,425
1506652120842,422
1506652120850,424
1506652120858,425
1506652120867,423
1506652120875,426
1506652120883,423
1506652120891,424
1506652120899,425
1506652120908,422
1506652120916,425
1506652120924,420
1506652120932,421
1506652120940,422
1506652120945,420
1506652120952,426
1506652120961,429
1506652120969,441
1506652120977,462
1506652120985,490
1506652120993,535
1506652121002,584
1506652121010,647
1506652121018,714
1506652121026,775
1506652121034,838
1506652121042,882
1506652121051,912
1506652121059,912
1506652121067,913
1506652121075,913
1506652121083,912
1506652121091,875
1506652121100,835
1506652121104,785
1506652121113,738
1506652121121,685
1506652121128,634
1506652121136,589
1506652121145,544
1506652121153,513
1506652121161,480
1506652121169,457
1506652121178,442
1506652121186,427
1506652121194,423
1506652121202,415
1506652121211,412
1506652121219,411
1506652121227,407
1506652121235,412
1506652121243,412
1506652121251,418
1506652121259,427
1506652121263,432
1506652121272,446
1506652121280,454
1506652121288,466
1506652121296,478
1506652121304,484
1506652121313,496
1506652121321,498
1506652121329,502
1506652121337,505
1506652121346,499
1506652121353,500
1506652121362,491
1506652121370,484
1506652121378,477
1506652121386,465
1506652121394,458
1506652121403,446
1506652121411,437
1506652121419,429
1506652121423,417
1506652121431,413
1506652121439,403
1506652121448,398
1506652121456,397
1506652121464,391
1506652121472,392
1506652121480,390
1506652121488,391
1506652121497,395
1506652121505,395
1506652121514,402
1506652121521,403
1506652121530,408
1506652121538,414
1506652121546,416
1506652121554,425
1506652121562,428
1506652121570,431
1506652121579,437
1506652121583,437
1506652121591,442
1506652121600,441
1506652121608,442
1506652121616,445
1506652121625,441
1506652121633,445
1506652121641,442
1506652121649,441
1506652121657,442
1506652121666,436
1506652121674,438
1506652121682,435
1506652121690,433
1506652121698,434
1506652121707,429
1506652121715,431
1506652121723,427
1506652121731,425
1506652121739,426
1506652121743,422
1506652121752,424
1506652121760,423
1506652121768,423
1506652121776,426
1506652121784,423
1506652121792,427
1506652121801,426
1506652121809,426
1506652121817,428
1506652121825,426
1506652121833,428
1506652121842,427
1506652121850,426
1506652121858,428
1506652121866,424
1506652121874,426
1506652121882,425
1506652121891,424
1506652121899,428
1506652121903,429
1506652121911,443
1506652121919,457
1506652121927,482
1506652121936,521
1506652121944,564
1506652121952,623
1506652121960,684
1506652121968,746
1506652121976,807
1506652121985,854
1506652121993,896
1506652122001,913
1506652122009,912
1506652122017,912
1506652122026,908
1506652122034,880
1506652122042,842
1506652122050,796
1506652122058,751
1506652122062,698
1506652122071,651
1506652122079,603
1506652122087,559
1506652122096,525
1506652122104,489
1506652122112,466
1506652122121,446
1506652122128,431
1506652122136,425
1506652122144,416
1506652122152,414
1506652122161,412
1506652122169,410
1506652122177,415
1506652122185,417
1506652122193,424
1506652122201,430
1506652122210,438
1506652122218,452
1506652122222,460
1506652122230,474
1506652122238,486
1506652122247,494
1506652122255,506
1506652122263,510
1506652122271,518
1506652122279,521
1506652122288,519
1506652122296,519
1506652122304,511
1506652122312,506
1506652122321,497
1506652122328,486
1506652122337,480
1506652122345,465
1506652122353,457
1506652122361,447
1506652122369,435
1506652122377,431
1506652122382,420
1506652122390,416
1506652122398,410
1506652122407,405
1506652122415,405
1506652122423,401
1506652122431,404
1506652122439,406
1506652122447,406
1506652122456,413
1506652122464,414
1506652122472,419
1506652122480,424
1506652122488,426
1506652122496,433
1506652122504,434
1506652122513,440
1506652122521,443
1506652122529,445
1506652122537,451
1506652122545,449
1506652122549,453
1506652122558,455
1506652122566,453
1506652122574,457
1506652122582,454
1506652122590,456
1506652122599,455
1506652122608,452
1506652122616,455
1506652122623,451
1506652122631,451
1506652122640,451
1506652122648,447
1506652122656,450
1506652122664,446
1506652122672,447
1506652122680,448
1506652122689,445
1506652122697,448
1506652122705,444
1506652122710,444
1506652122718,445
1506652122727,441
1506652122735,445
1506652122743,442
1506652122751,441
1506652122759,442
1506652122767,438
1506652122776,442
1506652122784,439
1506652122793,440
1506652122801,440
1506652122808,439
1506652122817,444
1506652122825,445
1506652122833,453
1506652122841,466
1506652122849,485
1506652122857,519
1506652122866,558
1506652122870,608
1506652122878,668
1506652122886,726
1506652122894,789
1506652122902,841
1506652122911,886
1506652122919,912
1506652122927,913
1506652122935,912
1506652122943,912
1506652122951,899
1506652122960,867
1506652122968,821
1506652122977,777
1506652122985,724
1506652122992,673
1506652123001,623
1506652123009,573
1506652123017,535
1506652123025,496
1506652123029,467
1506652123037,447
1506652123046,426
1506652123054,419
1506652123062,409
1506652123070,404
1506652123078,405
1506652123087,403
1506652123095,410
1506652123103,414
1506652123111,423
1506652123119,436
1506652123128,445
1506652123136,462
1506652123144,475
1506652123153,492
1506652123161,509
1506652123169,520
1506652123177,537
1506652123185,544
1506652123189,551
1506652123197,557
1506652123205,555
1506652123213,554
1506652123222,545
1506652123230,536
1506652123238,527
1506652123247,512
1506652123255,502
1506652123263,485
1506652123271,471
1506652123279,459
1506652123287,445
1506652123296,437
1506652123304,425
1506652123312,418
1506652123320,415
1506652123329,407
1506652123336,408
1506652123345,404
1506652123348,405
1506652123357,409
1506652123365,409
1506652123373,416
1506652123381,419
1506652123389,424
1506652123397,433
1506652123406,435
1506652123414,444
1506652123422,447
1506652123430,452
1506652123438,459
1506652123447,459
1506652123455,466
1506652123463,466
1506652123471,469
1506652123479,473
1506652123487,471
1506652123496,475
1506652123505,473
1506652123509,472
1506652123517,475
1506652123524,471
1506652123532,473
1506652123541,470
1506652123549,468
1506652123557,468
1506652123566,462
1506652123573,462
1506652123582,457
1506652123590,454
1506652123598,454
1506652123606,447
1506652123615,448
1506652123623,445
1506652123631,443
1506652123639,446
1506652123648,447
1506652123656,459
1506652123664,475
1506652123669,500
1506652123676,540
1506652123684,586
1506652123692,648
1506652123701,712
1506652123709,778
1506652123718,845
1506652123726,899
1506652123734,913
1506652123742,912
1506652123750,913
1506652123758,912
1506652123767,913
1506652123775,912
1506652123783,912
1506652123791,869
1506652123799,819
1506652123808,760
1506652123816,704
1506652123824,648
1506652123828,595
1506652123836,552
1506652123845,509
1506652123853,479
1506652123861,452
1506652123869,431
1506652123877,420
1506652123886,406
1506652123893,402
1506652123902,398
1506652123910,396
1506652123918,401
1506652123926,404
1506652123934,415
1506652123943,425
1506652123951,438
1506652123959,457
1506652123967,471
1506652123975,491
1506652123983,508
1506652123988,521
1506652123996,538
1506652124004,544
1506652124012,553
1506652124020,555
1506652124028,551
1506652124037,550
1506652124045,539
1506652124053,530
1506652124061,516
1506652124069,501
1506652124078,489
1506652124086,471
1506652124094,459
1506652124102,446
1506652124111,431
1506652124119,424
1506652124127,413
1506652124135,407
1506652124143,402
1506652124151,397
1506652124155,399
1506652124164,396
1506652124172,399
1506652124180,402
1506652124188,405
1506652124196,413
1506652124205,415
1506652124213,423
1506652124222,429
1506652124229,433
1506652124237,442
1506652124246,445
1506652124254,452
1506652124262,457
1506652124270,459
1506652124278,466
1506652124286,465
1506652124295,470
1506652124303,472
1506652124311,470
1506652124316,474
1506652124324,471
1506652124332,471
1506652124340,470
1506652124348,466
1506652124356,467
1506652124365,462
1506652124373,460
1506652124381,456
1506652124389,450
1506652124397,450
1506652124406,444
1506652124414,443
1506652124422,443
1506652124430,444
1506652124438,456
1506652124446,470
1506652124454,497
1506652124462,538
1506652124470,588
1506652124475,655
1506652124483,722
1506652124491,794
1506652124499,863
1506652124507,912
1506652124516,913
1506652124524,912
1506652124532,913
1506652124540,913
1506652124548,912
1506652124556,913
1506652124565,913
1506652124573,880
1506652124581,824
1506652124589,762
1506652124597,706
1506652124606,645
1506652124614,592
1506652124622,547
1506652124630,503
1506652124634,473
1506652124642,445
1506652124650,427
1506652124659,414
1506652124667,402
1506652124675,398
1506652124683,391
1506652124691,391
1506652124700,394
1506652124708,395
1506652124717,405
1506652124725,413
1506652124732,426
1506652124741,443
1506652124749,457
1506652124757,476
1506652124765,491
1506652124774,507
1506652124782,522
1506652124791,530
1506652124795,541
1506652124803,542
1506652124811,542
1506652124819,540
1506652124828,529
1506652124836,521
1506652124844,507
1506652124852,494
1506652124860,480
1506652124868,462
1506652124877,451
1506652124885,435
1506652124893,424
1506652124901,414
1506652124909,402
1506652124918,398
1506652124926,391
1506652124934,387
1506652124942,388
1506652124950,386
1506652124954,391
1506652124963,393
1506652124971,398
1506652124979,405
1506652124987,409
1506652124995,418
1506652125003,423
1506652125012,429
1506652125020,437
1506652125027,440
1506652125036,446
1506652125044,449
1506652125052,451
1506652125060,455
1506652125068,455
1506652125077,459
1506652125085,458
1506652125093,458
1506652125101,460
1506652125110,456
1506652125114,459
1506652125122,456
1506652125130,455
1506652125139,455
1506652125147,451
1506652125155,453
1506652125163,448
1506652125171,446
1506652125179,445
1506652125188,440
1506652125196,440
1506652125204,434
1506652125212,431
1506652125220,430
1506652125228,425
1506652125237,426
1506652125245,427
1506652125253,434
1506652125261,451
1506652125269,474
1506652125274,515
1506652125282,566
1506652125290,632
1506652125298,708
1506652125307,781
1506652125316,858
1506652125324,913
1506652125331,913
1506652125339,913
1506652125347,913
1506652125355,913
1506652125364,913
1506652125372,913
1506652125380,913
1506652125388,913
1506652125396,872
1506652125405,811
1506652125413,750
1506652125421,693
1506652125429,633
1506652125433,584
1506652125442,539
1506652125450,501
1506652125458,473
1506652125466,448
1506652125474,435
1506652125482,422
1506652125491,413
1506652125500,410
1506652125507,403
1506652125515,405
1506652125523,404
1506652125531,407
1506652125539,417
1506652125548,422
1506652125556,435
1506652125564,449
1506652125572,462
1506652125580,480
1506652125588,492
1506652125593,506
1506652125601,514
1506652125609,520
1506652125618,528
1506652125625,525
1506652125634,524
1506652125642,517
1506652125650,507
1506652125658,499
1506652125666,484
1506652125674,473
1506652125683,458
1506652125691,445
1506652125699,435
1506652125707,420
1506652125716,412
1506652125724,402
1506652125732,394
1506652125740,392
1506652125749,387
1506652125753,386
1506652125761,386
1506652125770,386
1506652125778,392
1506652125786,393
1506652125794,400
1506652125802,404
1506652125810,409
1506652125819,418
1506652125827,421
1506652125835,429
1506652125843,433
1506652125852,436
1506652125860,444
1506652125868,444
1506652125876,448
1506652125884,449
1506652125893,449
1506652125901,453
1506652125909,449
1506652125917,451
1506652125921,450
1506652125928,447
1506652125937,449
1506652125945,446
1506652125953,445
1506652125961,445
1506652125969,443
1506652125978,446
1506652125986,443
1506652125994,444
1506652126002,444
1506652126011,441
1506652126019,444
1506652126027,439
1506652126036,439
1506652126044,438
1506652126052,434
1506652126060,434
1506652126069,431
1506652126076,430
1506652126081,428
1506652126089,425
1506652126097,429
1506652126105,430
1506652126113,442
1506652126121,461
1506652126130,489
1506652126138,536
1506652126146,591
1506652126154,663
1506652126162,741
1506652126171,818
1506652126179,897
1506652126187,913
1506652126195,912
1506652126203,913
1506652126212,913
1506652126220,913
1506652126228,913
1506652126235,913
1506652126240,913
1506652126248,913
1506652126256,913
1506652126265,855
1506652126272,794
1506652126281,732
1506652126289,670
1506652126297,620
1506652126306,570
1506652126314,532
1506652126322,502
1506652126330,475
1506652126338,460
1506652126346,445
1506652126354,436
1506652126363,429
1506652126371,421
1506652126379,421
1506652126388,416
1506652126396,419
1506652126400,423
1506652126409,427
1506652126417,440
1506652126425,449
1506652126433,462
1506652126441,476
1506652126449,486
1506652126458,501
1506652126466,508
1506652126474,516
1506652126482,520
1506652126490,517
1506652126499,518
1506652126507,510
1506652126515,504
1506652126523,495
1506652126531,481
1506652126539,473
1506652126548,458
1506652126556,446
1506652126560,435
1506652126568,420
1506652126576,414
1506652126585,402
1506652126593,396
1506652126601,392
1506652126609,386
1506652126617,389
1506652126625,386
1506652126634,389
1506652126642,394
1506652126650,395
1506652126658,403
1506652126666,407
1506652126674,414
1506652126683,422
1506652126691,426
1506652126699,435
1506652126707,438
1506652126715,443
1506652126719,449
1506652126728,447
1506652126736,453
1506652126744,453
1506652126752,453
1506652126760,455
1506652126769,452
1506652126777,455
1506652126785,453
1506652126793,453
1506652126801,453
1506652126809,449
1506652126818,452
1506652126826,449
1506652126834,448
1506652126842,450
1506652126850,446
1506652126859,449
1506652126867,447
1506652126875,446
1506652126879,448
1506652126887,444
1506652126895,446
1506652126904,442
1506652126912,441
1506652126920,441
1506652126928,435
1506652126936,437
1506652126945,433
1506652126953,430
1506652126961,432
1506652126969,432
1506652126977,441
1506652126986,450
1506652126994,471
1506652127002,504
1506652127010,547
1506652127019,610
1506652127027,678
1506652127035,754
1506652127039,834
1506652127048,901
1506652127055,913
1506652127064,912
1506652127072,913
1506652127080,913
1506652127088,913
1506652127096,913
1506652127105,913
1506652127113,913
1506652127121,913
1506652127129,861
1506652127137,802
1506652127145,740
1506652127153,681
1506652127161,629
1506652127169,579
1506652127178,542
1506652127186,508
1506652127194,482
1506652127198,466
1506652127206,449
1506652127215,441
1506652127223,431
1506652127231,424
1506652127239,422
1506652127247,416
1506652127255,418
1506652127264,419
1506652127272,424
1506652127280,437
1506652127288,445
1506652127296,462
1506652127305,476
1506652127313,489
1506652127321,506
1506652127329,514
1506652127337,525
1506652127346,530
1506652127354,531
1506652127358,531
1506652127366,522
1506652127374,516
1506652127382,504
1506652127391,490
1506652127399,480
1506652127407,463
1506652127416,451
1506652127424,437
1506652127432,425
1506652127441,417
1506652127449,405
1506652127457,401
1506652127465,394
1506652127473,390
1506652127482,392
1506652127490,389
1506652127498,394
1506652127506,396
1506652127514,399
1506652127519,407
1506652127527,410
1506652127535,418
1506652127543,425
1506652127551,430
1506652127559,439
1506652127568,441
1506652127576,449
1506652127584,451
1506652127592,452
1506652127600,459
1506652127609,457
1506652127617,460
1506652127625,461
1506652127633,459
1506652127641,462
1506652127650,458
1506652127658,460
1506652127666,460
1506652127674,457
1506652127682,461
1506652127687,456
1506652127695,457
1506652127703,456
1506652127711,452
1506652127719,453
1506652127727,448
1506652127735,446
1506652127743,444
1506652127752,438
1506652127760,437
1506652127768,433
1506652127776,435
1506652127784,432
1506652127793,429
1506652127801,434
1506652127809,439
1506652127817,456
1506652127825,479
1506652127833,513
1506652127841,568
1506652127846,628
1506652127855,702
1506652127862,779
1506652127870,849
1506652127879,912
1506652127887,913
1506652127895,913
1506652127903,913
1506652127911,913
1506652127919,913
1506652127927,913
1506652127936,913
1506652127944,913
1506652127952,892
1506652127961,839
1506652127969,776
1506652127977,720
1506652127985,666
1506652127993,614
1506652128001,575
1506652128006,537
1506652128014,509
1506652128023,487
1506652128031,468
1506652128038,457
1506652128047,444
1506652128055,436
1506652128063,428
1506652128071,419
1506652128079,418
1506652128087,414
1506652128096,417
1506652128104,423
1506652128112,429
1506652128120,445
1506652128128,455
1506652128136,470
1506652128144,484
1506652128152,494
1506652128160,506
1506652128165,507
1506652128173,512
1506652128181,512
1506652128189,505
1506652128197,503
1506652128206,492
1506652128214,484
1506652128223,473
1506652128231,459
1506652128239,450
1506652128247,436
1506652128255,427
1506652128263,418
1506652128272,406
1506652128280,404
1506652128288,396
1506652128296,394
1506652128305,393
1506652128313,390
1506652128321,395
1506652128326,396
1506652128333,400
1506652128341,404
1506652128349,408
1506652128357,417
1506652128366,420
1506652128374,428
1506652128382,434
1506652128391,437
1506652128399,445
1506652128406,447
1506652128415,451
1506652128424,455
1506652128431,453
1506652128439,457
1506652128447,455
1506652128456,455
1506652128464,456
1506652128472,452
1506652128480,455
1506652128484,452
1506652128492,451
1506652128501,452
1506652128509,448
1506652128517,451
1506652128526,448
1506652128534,447
1506652128542,447
1506652128550,442
1506652128558,445
1506652128567,439
1506652128575,438
1506652128582,437
1506652128591,431
1506652128599,431
1506652128607,427
1506652128616,424
1506652128624,426
1506652128632,421
1506652128640,425
1506652128645,424
1506652128652,432
1506652128661,447
1506652128669,469
1506652128677,508
1506652128685,557
1506652128693,619
1506652128702,695
1506652128710,770
1506652128718,850
1506652128727,912
1506652128736,913
1506652128743,913
1506652128751,913
1506652128759,913
1506652128768,913
1506652128776,913
1506652128784,913
1506652128792,913
1506652128800,913
1506652128804,871
1506652128813,811
1506652128821,754
1506652128829,696
1506652128837,646
1506652128846,599
1506652128854,560
1506652128862,531
1506652128870,504
1506652128878,489
1506652128887,472
1506652128895,460
1506652128903,452
1506652128911,439
1506652128920,433
1506652128928,425
1506652128935,419
1506652128944,417
1506652128952,414
1506652128960,420
1506652128964,425
1506652128972,435
1506652128980,449
1506652128989,458
1506652128997,474
1506652129005,484
1506652129013,492
1506652129021,500
1506652129029,500
1506652129038,503
1506652129046,498
1506652129054,492
1506652129062,486
1506652129070,473
1506652129079,466
1506652129087,453
1506652129095,441
1506652129104,434
1506652129112,420
1506652129119,415
1506652129124,406
1506652129132,398
1506652129140,395
1506652129148,388
1506652129156,389
1506652129165,388
1506652129173,389
1506652129181,396
1506652129189,396
1506652129197,406
1506652129205,411
1506652129214,416
1506652129222,426
1506652129230,430
1506652129238,439
1506652129246,444
1506652129254,447
1506652129263,453
1506652129271,453
1506652129279,458
1506652129283,459
1506652129291,457
1506652129299,460
1506652129308,455
1506652129316,456
1506652129325,453
1506652129332,450
1506652129340,451
1506652129349,445
1506652129357,444
1506652129365,440
1506652129373,436
1506652129381,436
1506652129390,430
1506652129398,431
1506652129406,428
1506652129415,424
1506652129423,427
1506652129430,423
1506652129438,426
1506652129447,426
1506652129451,426
1506652129459,431
1506652129467,430
1506652129475,435
1506652129484,437
1506652129492,437
1506652129500,442
1506652129508,441
1506652129517,444
1506652129525,444
1506652129533,442
1506652129541,446
1506652129549,441
1506652129557,442
1506652129566,439
1506652129574,435
1506652129582,437
1506652129590,432
1506652129598,436
1506652129606,442
1506652129610,451
1506652129619,478
1506652129627,510
1506652129635,563
1506652129643,629
1506652129651,703
1506652129660,788
1506652129668,865
1506652129676,913
1506652129684,913
1506652129692,913
1506652129701,913
1506652129709,913
1506652129717,913
1506652129726,913
1506652129733,913
1506652129743,913
1506652129751,913
1506652129759,913
1506652129767,893
1506652129771,831
1506652129779,777
1506652129788,719
1506652129796,671
1506652129804,629
1506652129812,589
1506652129820,565
1506652129828,539
1506652129837,523
1506652129845,508
1506652129853,493
1506652129861,482
1506652129869,466
1506652129877,455
1506652129886,444
1506652129894,431
1506652129902,428
1506652129910,421
1506652129919,421
1506652129926,426
1506652129930,429
1506652129938,441
1506652129947,447
1506652129955,459
1506652129963,469
1506652129971,474
1506652129979,483
1506652129987,483
1506652129996,485
1506652130004,485
1506652130012,478
1506652130021,476
1506652130029,466
1506652130037,459
1506652130046,451
1506652130053,439
1506652130062,433
1506652130070,420
1506652130078,413
1506652130086,406
1506652130090,397
1506652130099,396
1506652130107,390
1506652130115,390
1506652130124,393
1506652130131,393
1506652130139,400
1506652130148,403
1506652130156,411
1506652130164,417
1506652130172,420
1506652130180,431
1506652130189,433
1506652130197,439
1506652130205,444
1506652130213,444
1506652130221,451
1506652130229,449
1506652130237,451
1506652130246,454
1506652130250,449
1506652130258,452
1506652130266,448
1506652130274,447
1506652130283,447
1506652130291,442
1506652130299,443
1506652130307,438
1506652130316,436
1506652130324,436
1506652130332,431
1506652130340,431
1506652130348,428
1506652130357,427
1506652130365,427
1506652130373,423
1506652130381,426
1506652130389,422
1506652130398,422
1506652130406,424
1506652130410,420
1506652130418,424
1506652130426,423
1506652130434,424
1506652130442,428
1506652130450,427
1506652130458,433
1506652130467,433
1506652130475,436
1506652130483,440
1506652130491,441
1506652130499,446
1506652130507,446
1506652130516,447
1506652130525,450
1506652130532,446
1506652130540,448
1506652130549,445
1506652130557,443
1506652130565,442
1506652130569,437
1506652130577,438
1506652130586,434
1506652130593,434
1506652130602,439
1506652130610,446
1506652130619,469
1506652130627,500
1506652130634,546
1506652130642,610
1506652130651,681
1506652130659,766
1506652130667,849
1506652130675,913
1506652130684,913
1506652130692,913
1506652130700,913
1506652130708,913
1506652130717,913
1506652130725,913
1506652130730,913
1506652130738,913
1506652130746,913
1506652130754,913
1506652130762,913
1506652130770,874
1506652130778,817
1506652130786,759
1506652130794,706
1506652130803,662
1506652130811,618
1506652130819,589
1506652130828,562
1506652130836,541
1506652130844,527
1506652130852,509
1506652130860,497
1506652130869,480
1506652130877,465
1506652130885,453
1506652130889,437
1506652130897,429
1506652130906,421
1506652130914,417
1506652130922,419
1506652130930,420
1506652130938,430
1506652130947,437
1506652130954,446
1506652130963,459
1506652130971,464
1506652130979,475
1506652130987,478
1506652130995,480
1506652131004,482
1506652131012,477
1506652131020,474
1506652131028,466
1506652131036,458
1506652131045,452
1506652131052,438
1506652131057,431
1506652131066,420
1506652131073,409
1506652131081,404
1506652131090,395
1506652131099,391
1506652131106,387
1506652131115,383
1506652131123,385
1506652131131,383
1506652131139,389
1506652131147,392
1506652131155,396
1506652131163,403
1506652131171,406
1506652131179,418
1506652131188,424
1506652131196,429
1506652131204,438
1506652131212,440
1506652131217,446
1506652131225,449
1506652131233,451
1506652131241,455
1506652131249,452
1506652131257,456
1506652131266,453
1506652131274,450
1506652131282,452
1506652131290,446
1506652131298,446
1506652131307,443
1506652131315,439
1506652131323,439
1506652131331,433
1506652131339,433
1506652131348,430
1506652131356,427
1506652131364,430
1506652131372,426
1506652131376,428
1506652131385,430
1506652131393,428
1506652131401,433
1506652131409,432
1506652131417,436
1506652131426,437
1506652131434,437
1506652131442,440
1506652131450,439
1506652131458,442
1506652131466,442
1506652131474,439
1506652131482,443
1506652131490,440
1506652131499,441
1506652131507,441
1506652131515,438
1506652131524,441
1506652131532,440
1506652131536,447
1506652131544,459
1506652131552,480
1506652131560,518
1506652131569,564
1506652131577,628
1506652131585,701
1506652131593,776
1506652131601,854
1506652131610,913
1506652131619,913
1506652131627,913
1506652131635,913
1506652131643,913
1506652131651,913
1506652131659,913
1506652131667,913
1506652131676,913
1506652131684,913
1506652131692,852
1506652131696,793
1506652131704,735
1506652131712,677
1506652131721,630
1506652131729,585
1506652131736,552
1506652131745,526
1506652131753,504
1506652131761,495
1506652131769,482
1506652131777,476
1506652131786,469
1506652131794,459
1506652131802,454
1506652131810,444
