time,value
1506577198276,626
1506577198284,601
1506577198293,579
1506577198301,556
1506577198309,531
1506577198317,512
1506577198325,492
1506577198334,474
1506577198342,459
1506577198350,445
1506577198358,435
1506577198367,426
1506577198375,420
1506577198383,416
1506577198387,411
1506577198396,414
1506577198404,413
1506577198412,416
1506577198420,422
1506577198428,427
1506577198437,437
1506577198444,445
1506577198453,454
1506577198461,465
1506577198469,473
1506577198477,485
1506577198485,492
1506577198493,501
1506577198502,509
1506577198510,512
1506577198518,519
1506577198526,521
1506577198534,523
1506577198543,525
1506577198547,523
1506577198555,523
1506577198563,518
1506577198571,515
1506577198579,512
1506577198587,506
1506577198596,504
1506577198604,496
1506577198612,493
1506577198620,489
1506577198628,482
1506577198637,481
1506577198645,476
1506577198653,473
1506577198662,472
1506577198670,469
1506577198678,469
1506577198686,466
1506577198695,465
1506577198702,465
1506577198707,462
1506577198715,464
1506577198723,462
1506577198731,462
1506577198739,463
1506577198748,461
1506577198756,463
1506577198763,463
1506577198771,465
1506577198780,468
1506577198788,468
1506577198796,472
1506577198804,473
1506577198812,475
1506577198821,478
1506577198829,478
1506577198837,483
1506577198846,486
1506577198854,493
1506577198862,503
1506577198866,515
1506577198874,535
1506577198883,554
1506577198891,578
1506577198899,603
1506577198907,625
1506577198915,650
1506577198923,669
1506577198932,686
1506577198940,700
1506577198948,706
1506577198956,710
1506577198964,706
1506577198972,699
1506577198981,688
1506577198989,671
1506577198997,654
1506577199005,630
1506577199013,607
1506577199021,586
1506577199026,560
1506577199034,538
1506577199043,516
1506577199051,495
1506577199058,478
1506577199067,460
1506577199075,448
1506577199083,436
1506577199091,427
1506577199099,420
1506577199108,414
1506577199116,413
1506577199124,413
1506577199132,414
1506577199141,419
1506577199149,424
1506577199157,432
1506577199165,440
1506577199173,447
1506577199181,458
1506577199185,466
1506577199194,477
1506577199202,486
1506577199210,496
1506577199218,506
1506577199226,512
1506577199235,520
1506577199243,526
1506577199251,529
1506577199259,532
1506577199267,532
1506577199275,532
1506577199284,529
1506577199292,525
1506577199300,521
1506577199308,515
1506577199316,511
1506577199325,504
1506577199333,498
1506577199341,494
1506577199349,487
1506577199354,483
1506577199362,478
1506577199370,474
1506577199378,471
1506577199387,467
1506577199395,467
1506577199403,465
1506577199411,465
1506577199419,466
1506577199427,464
1506577199436,465
1506577199444,467
1506577199452,468
1506577199460,469
1506577199468,469
1506577199476,470
1506577199485,470
1506577199493,470
1506577199501,473
1506577199509,472
1506577199513,474
1506577199521,476
1506577199530,478
1506577199538,480
1506577199546,481
1506577199554,484
1506577199563,487
1506577199571,491
1506577199579,497
1506577199587,504
1506577199595,515
1506577199603,528
1506577199611,544
1506577199620,563
1506577199628,581
1506577199636,603
1506577199644,624
1506577199652,644
1506577199661,664
1506577199669,678
1506577199673,691
1506577199681,698
1506577199689,699
1506577199698,697
1506577199706,688
1506577199714,676
1506577199722,660
1506577199730,640
1506577199738,620
1506577199747,595
1506577199755,572
1506577199763,548
1506577199771,525
1506577199780,504
1506577199788,482
1506577199796,465
1506577199804,450
1506577199812,438
1506577199820,429
1506577199828,421
1506577199832,417
1506577199841,415
1506577199849,414
1506577199857,418
1506577199865,421
1506577199873,426
1506577199882,433
1506577199890,439
1506577199898,449
1506577199906,457
1506577199915,467
1506577199922,476
1506577199931,485
1506577199939,494
1506577199947,502
1506577199955,510
1506577199963,515
1506577199972,520
1506577199980,526
1506577199988,526
1506577199992,527
1506577200001,529
1506577200009,527
1506577200017,524
1506577200025,519
1506577200033,514
1506577200042,509
1506577200050,502
1506577200058,496
1506577200066,489
1506577200075,485
1506577200083,481
1506577200091,475
1506577200099,473
1506577200107,469
1506577200116,465
1506577200123,463
1506577200132,461
1506577200140,461
1506577200148,459
1506577200152,461
1506577200160,460
1506577200169,461
1506577200177,464
1506577200185,464
1506577200193,466
1506577200201,469
1506577200210,471
1506577200218,473
1506577200226,474
1506577200235,476
1506577200242,476
1506577200251,479
1506577200259,480
1506577200267,481
1506577200276,483
1506577200284,484
1506577200292,484
1506577200300,487
1506577200308,487
1506577200312,491
1506577200320,495
1506577200329,502
1506577200337,512
1506577200345,524
1506577200353,541
1506577200361,559
1506577200370,579
1506577200378,603
1506577200386,623
1506577200394,644
1506577200402,664
1506577200411,679
1506577200419,692
1506577200427,699
1506577200436,701
1506577200444,698
1506577200451,691
1506577200460,681
1506577200468,664
1506577200472,646
1506577200480,625
1506577200488,601
1506577200497,578
1506577200505,554
1506577200513,532
1506577200521,510
1506577200529,491
1506577200537,473
1506577200546,456
1506577200554,445
1506577200562,435
1506577200570,427
1506577200578,423
1506577200586,419
1506577200595,419
1506577200603,422
1506577200611,424
1506577200619,430
1506577200627,435
1506577200632,443
1506577200640,452
1506577200648,461
1506577200656,474
1506577200664,483
1506577200672,493
1506577200681,503
1506577200689,511
1506577200697,521
1506577200705,528
1506577200713,535
1506577200721,541
1506577200730,542
1506577200738,545
1506577200746,543
1506577200754,542
1506577200762,538
1506577200771,532
1506577200779,526
1506577200787,518
1506577200791,511
1506577200799,503
1506577200807,494
1506577200816,488
1506577200824,480
1506577200832,476
1506577200840,469
1506577200848,462
1506577200857,460
1506577200865,455
1506577200873,455
1506577200881,453
1506577200889,452
1506577200898,454
1506577200906,452
1506577200914,454
1506577200922,456
1506577200930,458
1506577200938,461
1506577200947,461
1506577200951,463
1506577200959,465
1506577200968,467
1506577200976,471
1506577200984,472
1506577200992,474
1506577201000,476
1506577201009,476
1506577201017,478
1506577201025,479
1506577201033,480
1506577201041,481
1506577201049,480
1506577201058,481
1506577201066,481
1506577201074,485
1506577201082,491
1506577201090,497
1506577201098,510
1506577201107,523
1506577201115,541
1506577201119,562
1506577201127,583
1506577201136,606
1506577201143,626
1506577201152,647
1506577201160,665
1506577201168,676
1506577201176,686
1506577201184,688
1506577201193,685
1506577201201,679
1506577201209,666
1506577201217,653
1506577201225,631
1506577201233,611
1506577201242,588
1506577201250,565
1506577201258,543
1506577201266,519
1506577201275,498
1506577201278,479
1506577201287,461
1506577201295,447
1506577201303,434
1506577201311,425
1506577201319,418
1506577201328,413
1506577201336,412
1506577201344,411
1506577201352,413
1506577201360,417
1506577201368,422
1506577201377,430
1506577201385,436
1506577201393,446
1506577201401,456
1506577201409,465
1506577201418,476
1506577201426,486
1506577201434,496
1506577201439,505
1506577201446,512
1506577201455,521
1506577201463,526
1506577201471,531
1506577201479,534
1506577201487,533
1506577201495,534
1506577201504,531
1506577201512,528
1506577201520,524
1506577201528,518
1506577201537,514
1506577201545,507
1506577201553,501
1506577201561,495
1506577201569,487
1506577201578,483
1506577201586,477
1506577201594,472
1506577201598,468
1506577201606,463
1506577201615,461
1506577201623,457
1506577201631,455
1506577201639,455
1506577201647,453
1506577201656,454
1506577201663,453
1506577201672,453
1506577201680,455
1506577201688,455
1506577201696,458
1506577201704,459
1506577201713,461
1506577201721,463
1506577201729,463
1506577201738,466
1506577201745,467
1506577201753,468
1506577201758,469
1506577201766,469
1506577201774,472
1506577201782,472
1506577201790,474
1506577201798,475
1506577201807,475
1506577201815,478
1506577201823,478
1506577201832,480
1506577201840,484
1506577201848,488
1506577201856,497
1506577201864,505
1506577201873,517
1506577201881,534
1506577201889,550
1506577201897,571
1506577201905,590
1506577201913,611
1506577201918,631
1506577201926,648
1506577201934,664
1506577201942,675
1506577201950,682
1506577201958,685
1506577201966,681
1506577201974,676
1506577201983,666
1506577201991,650
1506577201999,634
1506577202007,613
1506577202015,593
1506577202024,571
1506577202032,549
1506577202040,528
1506577202048,508
1506577202057,490
1506577202065,472
1506577202073,456
1506577202077,444
1506577202085,433
1506577202094,426
1506577202102,419
1506577202110,416
1506577202118,415
1506577202126,416
1506577202135,420
1506577202143,423
1506577202151,430
1506577202159,438
1506577202168,446
1506577202176,458
1506577202184,468
1506577202192,478
1506577202200,491
1506577202209,499
1506577202217,509
1506577202225,517
1506577202233,525
1506577202237,532
1506577202245,536
1506577202253,541
1506577202261,542
1506577202269,541
1506577202278,542
1506577202286,537
1506577202294,534
1506577202302,529
1506577202310,523
1506577202318,517
1506577202327,510
1506577202335,505
1506577202343,498
1506577202352,492
1506577202360,487
1506577202368,480
1506577202376,477
1506577202384,473
1506577202393,468
1506577202397,465
1506577202405,462
1506577202413,460
1506577202421,459
1506577202430,460
1506577202438,461
1506577202446,460
1506577202454,463
1506577202462,463
1506577202470,466
1506577202479,469
1506577202487,470
1506577202495,474
1506577202503,476
1506577202511,477
1506577202520,479
1506577202528,479
1506577202536,482
1506577202544,482
1506577202552,483
1506577202556,484
1506577202565,483
1506577202573,485
1506577202581,485
1506577202589,486
1506577202597,490
1506577202606,493
1506577202614,502
1506577202622,512
1506577202630,526
1506577202638,543
1506577202647,560
1506577202655,581
1506577202663,600
1506577202671,621
1506577202679,641
1506577202688,657
1506577202696,671
1506577202704,681
1506577202712,685
1506577202716,687
1506577202724,681
1506577202733,673
1506577202741,659
1506577202749,642
1506577202757,623
1506577202765,601
1506577202774,578
1506577202782,555
1506577202790,531
1506577202798,510
1506577202806,488
1506577202815,470
1506577202823,451
1506577202831,436
1506577202839,425
1506577202847,414
1506577202856,408
1506577202864,403
1506577202872,400
1506577202880,402
1506577202884,403
1506577202892,409
1506577202901,415
1506577202909,423
1506577202917,433
1506577202925,441
1506577202933,453
1506577202941,463
1506577202950,475
1506577202958,488
1506577202966,497
1506577202974,507
1506577202982,516
1506577202991,523
1506577202999,530
1506577203007,533
1506577203015,537
1506577203023,538
1506577203031,538
1506577203039,536
1506577203044,531
1506577203052,527
1506577203060,521
1506577203068,514
1506577203077,508
1506577203085,501
1506577203093,496
1506577203101,489
1506577203109,483
1506577203117,478
1506577203126,473
1506577203134,470
1506577203141,466
1506577203150,463
1506577203159,463
1506577203167,460
1506577203175,461
1506577203183,460
1506577203191,460
1506577203200,460
1506577203204,460
1506577203212,463
1506577203220,463
1506577203228,463
1506577203237,466
1506577203245,467
1506577203253,468
1506577203261,469
1506577203269,469
1506577203277,472
1506577203286,473
1506577203294,477
1506577203302,478
1506577203310,478
1506577203318,482
1506577203327,483
1506577203335,487
1506577203343,491
1506577203351,496
1506577203359,505
1506577203363,516
1506577203372,530
1506577203380,545
1506577203388,564
1506577203396,585
1506577203404,604
1506577203412,626
1506577203420,644
1506577203428,659
1506577203436,673
1506577203445,679
1506577203453,683
1506577203461,682
1506577203469,675
1506577203477,665
1506577203486,649
1506577203494,634
1506577203502,614
1506577203511,593
1506577203519,573
1506577203523,550
1506577203531,529
1506577203539,511
1506577203547,491
1506577203556,477
1506577203564,461
1506577203572,448
1506577203580,437
1506577203589,428
1506577203597,422
1506577203605,415
1506577203613,413
1506577203621,411
1506577203629,411
1506577203638,415
1506577203646,419
1506577203654,426
1506577203662,432
1506577203670,440
1506577203679,451
1506577203683,460
1506577203691,470
1506577203699,480
1506577203707,490
1506577203715,500
1506577203724,507
1506577203732,515
1506577203740,521
1506577203748,525
1506577203756,529
1506577203765,529
1506577203773,530
1506577203781,528
1506577203790,525
1506577203798,523
1506577203806,517
1506577203814,513
1506577203822,507
1506577203830,500
1506577203839,495
1506577203843,488
1506577203851,481
1506577203859,475
1506577203867,469
1506577203876,465
1506577203884,461
1506577203892,460
1506577203900,457
1506577203908,457
1506577203916,458
1506577203925,456
1506577203933,456
1506577203941,455
1506577203949,455
1506577203957,456
1506577203966,456
1506577203974,459
1506577203982,460
1506577203990,461
1506577203998,462
1506577204002,461
1506577204010,462
1506577204019,462
1506577204027,461
1506577204035,463
1506577204043,461
1506577204051,463
1506577204060,463
1506577204068,464
1506577204076,468
1506577204084,469
1506577204092,475
1506577204101,482
1506577204109,491
1506577204117,504
1506577204125,519
1506577204133,537
1506577204142,558
1506577204150,579
1506577204158,602
1506577204162,623
1506577204170,643
1506577204178,659
1506577204186,671
1506577204195,681
1506577204203,681
1506577204211,679
1506577204219,671
1506577204227,659
1506577204236,644
1506577204244,624
1506577204252,603
1506577204260,581
1506577204268,557
1506577204277,535
1506577204285,512
1506577204293,491
1506577204301,471
1506577204309,453
1506577204318,440
1506577204322,425
1506577204330,415
1506577204338,407
1506577204346,400
1506577204355,397
1506577204362,393
1506577204370,393
1506577204378,393
1506577204387,395
1506577204395,400
1506577204403,404
1506577204412,412
1506577204420,420
1506577204428,428
1506577204437,439
1506577204445,448
1506577204453,458
1506577204461,469
1506577204469,479
1506577204478,489
1506577204486,496
1506577204490,504
1506577204498,509
1506577204506,511
1506577204515,513
1506577204523,513
1506577204531,512
1506577204539,510
1506577204547,506
1506577204555,502
1506577204564,497
1506577204572,491
1506577204580,486
1506577204588,479
1506577204596,474
1506577204604,467
1506577204613,462
1506577204621,458
1506577204629,452
1506577204637,450
1506577204645,446
1506577204649,443
1506577204658,441
1506577204666,439
1506577204674,440
1506577204682,439
1506577204690,440
1506577204699,441
1506577204707,441
1506577204715,445
1506577204723,446
1506577204731,450
1506577204740,454
1506577204748,458
1506577204756,464
1506577204764,467
1506577204772,474
1506577204781,478
1506577204789,480
1506577204797,484
1506577204805,485
1506577204809,486
1506577204817,488
1506577204825,488
1506577204834,492
1506577204842,494
1506577204850,500
1506577204858,508
1506577204866,517
1506577204875,532
1506577204883,545
1506577204891,564
1506577204899,582
1506577204907,601
1506577204916,620
1506577204924,636
1506577204932,650
1506577204940,661
1506577204948,666
1506577204956,668
1506577204965,663
1506577204969,656
1506577204977,646
1506577204985,632
1506577204993,616
1506577205002,597
1506577205010,578
1506577205018,559
1506577205026,539
1506577205034,525
1506577205043,507
1506577205051,490
1506577205059,475
1506577205067,462
1506577205076,455
1506577205084,447
1506577205092,442
1506577205100,438
1506577205108,435
1506577205117,436
1506577205125,435
1506577205129,438
1506577205137,442
1506577205145,446
1506577205153,451
1506577205162,455
1506577205170,461
1506577205178,468
1506577205186,472
1506577205195,481
1506577205203,485
1506577205211,490
1506577205219,496
1506577205227,499
1506577205235,505
1506577205243,509
1506577205252,512
1506577205260,515
1506577205268,517
1506577205276,521
1506577205284,522
1506577205288,524
1506577205297,525
1506577205305,525
1506577205313,527
1506577205321,526
1506577205329,527
1506577205338,527
1506577205346,526
1506577205354,527
1506577205362,525
1506577205370,523
1506577205378,521
1506577205387,517
1506577205395,516
1506577205403,511
1506577205411,508
1506577205419,504
1506577205428,499
1506577205436,495
1506577205444,490
1506577205448,487
1506577205456,482
1506577205464,478
1506577205473,476
1506577205481,471
1506577205489,470
1506577205497,469
1506577205505,467
1506577205514,467
1506577205522,467
1506577205530,467
1506577205538,472
1506577205546,473
1506577205555,477
1506577205563,479
1506577205571,484
1506577205579,489
1506577205587,491
1506577205596,498
1506577205603,503
1506577205608,509
1506577205616,518
1506577205624,527
1506577205632,540
1506577205641,555
1506577205649,571
1506577205657,587
1506577205665,603
1506577205673,621
1506577205681,634
1506577205689,646
1506577205698,657
1506577205706,661
1506577205715,664
1506577205723,660
1506577205731,653
1506577205739,644
1506577205747,629
1506577205756,614
1506577205764,596
1506577205768,577
1506577205776,557
1506577205784,536
1506577205792,519
1506577205801,501
1506577205809,485
1506577205817,472
1506577205825,458
1506577205833,449
1506577205842,441
1506577205850,435
1506577205858,431
1506577205866,427
1506577205874,428
1506577205882,429
1506577205891,432
1506577205899,438
1506577205907,442
1506577205915,451
1506577205923,458
1506577205927,466
1506577205936,476
1506577205944,484
1506577205952,495
1506577205960,504
1506577205968,513
1506577205977,523
1506577205985,529
1506577205993,538
1506577206001,543
1506577206009,547
1506577206017,548
1506577206026,547
1506577206034,546
1506577206042,543
1506577206050,538
1506577206058,533
1506577206067,526
1506577206075,521
1506577206083,514
1506577206091,508
1506577206095,504
1506577206103,497
1506577206112,493
1506577206120,487
1506577206128,482
1506577206136,480
1506577206144,476
1506577206152,475
1506577206161,473
1506577206169,473
1506577206177,473
1506577206185,472
1506577206194,474
1506577206202,474
1506577206210,476
1506577206218,478
1506577206226,477
1506577206235,479
1506577206243,480
1506577206251,481
1506577206255,483
1506577206263,483
1506577206271,486
1506577206279,487
1506577206287,490
1506577206296,493
1506577206304,494
1506577206312,499
1506577206321,501
1506577206329,505
1506577206337,510
1506577206345,516
1506577206353,526
1506577206362,537
1506577206370,550
1506577206378,565
1506577206386,579
1506577206394,598
1506577206402,614
1506577206410,631
1506577206415,648
1506577206422,659
1506577206431,667
1506577206439,671
1506577206447,669
1506577206455,664
1506577206463,653
1506577206472,641
1506577206480,624
1506577206488,606
1506577206497,587
1506577206505,565
1506577206513,546
1506577206521,526
1506577206529,506
1506577206538,489
1506577206546,471
1506577206554,459
1506577206562,446
1506577206570,437
1506577206575,431
1506577206583,426
1506577206591,425
1506577206599,424
1506577206607,427
1506577206615,434
1506577206623,440
1506577206632,450
1506577206640,461
1506577206648,473
1506577206656,487
1506577206664,499
1506577206673,514
1506577206681,526
1506577206689,539
1506577206697,553
1506577206705,562
1506577206714,571
1506577206722,577
1506577206730,581
1506577206734,584
1506577206742,582
1506577206750,580
1506577206759,575
1506577206767,569
1506577206775,562
1506577206783,551
1506577206791,541
1506577206800,528
1506577206808,516
1506577206816,505
1506577206824,494
1506577206832,484
1506577206840,474
1506577206849,465
1506577206857,460
1506577206865,454
1506577206873,451
1506577206882,448
1506577206890,446
1506577206894,447
1506577206902,445
1506577206910,447
1506577206919,448
1506577206927,452
1506577206935,456
1506577206943,457
1506577206951,464
1506577206960,469
1506577206968,475
1506577206976,481
1506577206984,487
1506577206992,495
1506577207001,501
1506577207009,508
1506577207017,517
1506577207025,525
1506577207033,536
1506577207041,544
1506577207050,555
1506577207054,568
1506577207062,580
1506577207070,596
1506577207078,611
1506577207086,627
1506577207095,645
1506577207103,660
1506577207111,674
1506577207119,685
1506577207127,694
1506577207136,700
1506577207144,699
1506577207152,697
1506577207160,689
1506577207168,677
1506577207177,664
1506577207185,646
1506577207193,628
1506577207201,606
1506577207209,585
1506577207213,563
1506577207221,540
1506577207230,521
1506577207238,502
1506577207246,484
1506577207254,469
1506577207262,454
1506577207270,445
1506577207278,438
1506577207286,432
1506577207295,430
1506577207303,429
1506577207311,430
1506577207319,433
1506577207327,438
1506577207336,447
1506577207344,453
1506577207353,464
1506577207361,475
1506577207369,485
1506577207373,498
1506577207381,508
1506577207389,520
1506577207397,531
1506577207406,541
1506577207414,550
1506577207422,555
1506577207430,562
1506577207438,565
1506577207447,565
1506577207455,566
1506577207463,560
1506577207472,557
1506577207480,551
1506577207488,543
1506577207496,536
1506577207504,527
1506577207513,519
1506577207521,510
1506577207529,502
1506577207533,496
1506577207541,487
1506577207549,482
1506577207558,476
1506577207566,471
1506577207574,469
1506577207582,466
1506577207590,465
1506577207598,465
1506577207607,465
1506577207615,469
1506577207623,469
1506577207631,473
1506577207639,475
1506577207648,478
1506577207656,482
1506577207664,483
1506577207672,486
1506577207680,489
1506577207688,491
1506577207697,497
1506577207701,501
1506577207709,508
1506577207717,515
1506577207725,522
1506577207734,533
1506577207742,543
1506577207750,558
1506577207758,574
1506577207766,592
1506577207775,613
1506577207783,631
1506577207791,651
1506577207799,671
1506577207807,687
1506577207816,701
1506577207824,710
1506577207832,717
1506577207840,717
1506577207848,713
1506577207856,707
1506577207861,692
1506577207869,676
1506577207877,655
1506577207885,632
1506577207893,609
1506577207901,585
1506577207910,566
1506577207918,543
1506577207926,521
1506577207934,504
1506577207942,485
1506577207950,471
1506577207959,460
1506577207967,450
1506577207975,445
1506577207984,439
1506577207992,438
1506577208000,438
1506577208008,440
1506577208016,445
1506577208021,449
1506577208029,456
1506577208037,465
1506577208045,472
1506577208053,483
1506577208061,493
1506577208070,503
1506577208078,513
1506577208086,523
1506577208094,533
1506577208102,540
1506577208110,547
1506577208119,553
1506577208127,557
1506577208135,561
1506577208143,562
1506577208151,565
1506577208160,567
1506577208168,567
1506577208176,568
1506577208180,565
1506577208188,563
1506577208197,559
1506577208205,554
1506577208213,551
1506577208221,544
1506577208229,537
1506577208237,530
1506577208246,523
1506577208254,517
1506577208262,509
1506577208270,504
1506577208278,499
1506577208286,493
1506577208295,490
1506577208303,486
1506577208311,483
1506577208319,480
1506577208327,478
1506577208336,477
1506577208340,474
1506577208348,474
1506577208356,474
1506577208365,472
1506577208372,474
1506577208381,473
1506577208389,476
1506577208397,476
1506577208405,477
1506577208413,480
1506577208422,481
1506577208430,486
1506577208438,492
1506577208446,498
1506577208455,510
1506577208463,521
1506577208471,538
1506577208479,557
1506577208487,574
1506577208495,595
1506577208499,614
1506577208508,631
1506577208516,645
1506577208524,655
1506577208532,664
1506577208540,665
1506577208548,665
1506577208557,660
1506577208565,648
1506577208573,636
1506577208581,618
1506577208589,600
1506577208598,581
1506577208606,560
1506577208614,542
1506577208622,521
1506577208630,504
1506577208638,488
1506577208647,473
1506577208655,462
1506577208659,451
1506577208667,444
1506577208676,440
1506577208684,435
1506577208692,434
1506577208700,434
1506577208709,436
1506577208717,440
1506577208725,444
1506577208733,452
1506577208741,457
1506577208750,466
1506577208758,475
1506577208766,483
1506577208774,493
1506577208782,500
1506577208790,508
1506577208799,516
1506577208807,521
1506577208815,527
1506577208819,531
1506577208827,533
1506577208836,535
1506577208844,533
1506577208852,533
1506577208860,527
1506577208868,523
1506577208877,520
1506577208885,513
1506577208893,508
1506577208901,502
1506577208909,497
1506577208917,491
1506577208925,485
1506577208934,480
1506577208942,475
1506577208950,471
1506577208958,468
1506577208966,464
1506577208975,464
1506577208979,462
1506577208987,460
1506577208995,460
1506577209003,461
1506577209012,464
1506577209020,463
1506577209028,464
1506577209036,466
1506577209044,466
1506577209052,470
1506577209061,470
1506577209069,473
1506577209077,475
1506577209085,475
1506577209093,477
1506577209102,478
1506577209110,478
1506577209118,479
1506577209126,480
1506577209135,482
1506577209142,482
1506577209147,485
1506577209155,488
1506577209163,492
1506577209171,502
1506577209179,511
1506577209188,523
1506577209196,540
1506577209204,556
1506577209212,576
1506577209220,593
1506577209228,612
1506577209236,630
1506577209244,641
1506577209253,652
1506577209261,656
1506577209269,657
1506577209277,655
1506577209285,647
1506577209293,637
1506577209302,622
1506577209306,606
1506577209314,588
1506577209323,569
1506577209331,551
1506577209339,531
1506577209347,514
1506577209356,498
1506577209363,483
1506577209372,471
1506577209380,460
1506577209388,449
1506577209396,444
1506577209404,438
1506577209413,436
1506577209421,434
1506577209429,435
1506577209438,437
1506577209446,440
1506577209454,447
1506577209462,453
1506577209466,460
1506577209475,468
1506577209483,474
1506577209491,483
1506577209499,491
1506577209507,499
1506577209515,506
1506577209524,511
1506577209532,517
1506577209540,520
1506577209548,523
1506577209556,526
1506577209564,524
1506577209573,525
1506577209581,523
1506577209589,519
1506577209597,517
1506577209605,512
1506577209613,507
1506577209622,502
1506577209626,497
1506577209634,493
1506577209642,487
1506577209650,485
1506577209659,479
1506577209667,476
1506577209675,475
1506577209683,471
1506577209691,470
1506577209699,468
1506577209708,467
1506577209716,468
1506577209724,468
1506577209732,471
1506577209740,471
1506577209749,473
1506577209757,475
1506577209765,477
1506577209773,481
1506577209781,481
1506577209785,483
1506577209794,487
1506577209802,489
1506577209810,492
1506577209818,492
1506577209826,494
1506577209835,495
1506577209843,494
1506577209851,496
1506577209859,495
1506577209867,495
1506577209876,496
1506577209884,493
1506577209892,494
1506577209900,493
1506577209908,492
1506577209916,492
1506577209925,492
1506577209933,493
1506577209941,494
1506577209945,497
1506577209953,502
1506577209961,507
1506577209970,517
1506577209978,528
1506577209986,540
1506577209994,556
1506577210003,571
1506577210011,589
1506577210019,602
1506577210027,614
1506577210036,625
1506577210044,631
1506577210052,636
1506577210060,636
1506577210068,633
1506577210077,627
1506577210085,616
1506577210093,606
1506577210101,593
1506577210105,577
1506577210113,562
1506577210122,547
1506577210130,532
1506577210138,518
1506577210146,505
1506577210154,495
1506577210163,483
1506577210171,477
1506577210178,469
1506577210187,463
1506577210195,461
1506577210203,458
1506577210211,458
1506577210219,459
1506577210228,461
1506577210236,464
1506577210244,468
1506577210252,475
1506577210261,480
1506577210265,486
1506577210273,494
1506577210281,498
1506577210289,505
1506577210297,510
1506577210305,515
1506577210313,520
1506577210322,522
1506577210330,526
1506577210338,525
1506577210346,526
1506577210354,526
1506577210363,521
1506577210371,520
1506577210379,516
1506577210387,512
1506577210395,508
1506577210403,502
1506577210412,499
1506577210420,494
1506577210424,490
1506577210432,487
1506577210440,483
1506577210448,481
1506577210457,479
1506577210465,477
1506577210473,476
1506577210481,475
1506577210489,475
1506577210497,476
1506577210506,476
1506577210514,479
1506577210522,480
1506577210530,482
1506577210538,483
1506577210547,486
1506577210556,488
1506577210564,488
1506577210572,491
1506577210580,491
1506577210588,491
1506577210593,493
1506577210601,493
1506577210609,494
1506577210617,494
1506577210625,495
1506577210634,496
1506577210642,495
1506577210650,498
1506577210658,498
1506577210666,497
1506577210674,498
1506577210683,497
1506577210691,499
1506577210699,497
1506577210707,496
1506577210716,496
1506577210724,493
1506577210732,494
1506577210740,493
1506577210748,491
1506577210752,491
1506577210760,490
1506577210769,491
1506577210777,492
1506577210785,496
1506577210793,500
1506577210801,504
1506577210809,514
1506577210818,523
1506577210826,534
1506577210834,549
1506577210842,562
1506577210850,576
1506577210859,590
1506577210867,602
1506577210875,613
1506577210883,620
1506577210891,626
1506577210899,627
1506577210908,626
1506577210912,623
1506577210920,614
1506577210928,604
1506577210936,593
1506577210945,579
1506577210953,566
1506577210961,551
1506577210969,539
1506577210977,525
1506577210985,514
1506577210994,504
1506577211002,492
1506577211010,485
1506577211018,478
1506577211026,471
1506577211035,468
1506577211043,464
1506577211051,463
1506577211059,463
1506577211067,463
1506577211071,466
1506577211080,468
1506577211088,473
1506577211096,478
1506577211104,483
1506577211112,491
1506577211120,496
1506577211129,503
1506577211137,508
1506577211145,512
1506577211153,517
1506577211161,519
1506577211170,523
1506577211178,524
1506577211186,525
1506577211194,526
1506577211203,523
1506577211211,523
1506577211219,520
1506577211227,517
1506577211232,516
1506577211240,511
1506577211248,507
1506577211256,503
1506577211264,498
1506577211272,495
1506577211281,491
1506577211289,490
1506577211297,487
1506577211305,484
1506577211313,483
1506577211322,482
1506577211330,483
1506577211338,481
1506577211346,480
1506577211354,482
1506577211363,481
1506577211371,482
1506577211379,482
1506577211387,483
1506577211391,484
1506577211399,483
1506577211408,486
1506577211416,487
1506577211424,488
1506577211432,491
1506577211440,491
1506577211448,493
1506577211457,494
1506577211465,495
1506577211473,497
1506577211481,497
1506577211489,499
1506577211498,499
1506577211506,500
1506577211514,502
1506577211522,501
1506577211530,503
1506577211539,503
1506577211547,502
1506577211551,502
1506577211559,500
1506577211567,501
1506577211575,500
1506577211583,499
1506577211592,500
1506577211600,497
1506577211608,498
1506577211616,498
1506577211624,497
1506577211633,499
1506577211641,500
1506577211649,505
1506577211657,510
1506577211665,516
1506577211674,528
1506577211682,537
1506577211690,551
1506577211698,566
1506577211706,579
1506577211710,595
1506577211719,606
1506577211727,618
1506577211735,629
1506577211743,633
1506577211751,640
1506577211759,640
1506577211767,635
1506577211775,626
1506577211784,615
1506577211792,603
1506577211800,589
1506577211808,574
1506577211816,559
1506577211825,544
1506577211833,532
1506577211841,519
1506577211850,506
1506577211857,495
1506577211865,484
1506577211871,477
1506577211879,470
1506577211887,466
1506577211895,462
1506577211903,460
1506577211911,461
1506577211920,460
1506577211928,464
1506577211936,469
1506577211944,472
1506577211952,478
1506577211961,483
1506577211969,490
1506577211977,496
1506577211985,501
1506577211993,509
1506577212002,513
1506577212010,518
1506577212018,522
1506577212026,523
1506577212030,527
1506577212038,527
1506577212046,528
1506577212055,527
1506577212063,524
1506577212071,522
1506577212079,517
1506577212088,515
1506577212096,510
1506577212104,506
1506577212112,503
1506577212120,498
1506577212128,496
1506577212137,493
1506577212145,488
1506577212153,487
1506577212161,483
1506577212169,482
1506577212178,480
1506577212186,478
1506577212194,479
1506577212198,478
1506577212206,480
1506577212215,481
1506577212223,481
1506577212231,484
1506577212239,484
1506577212247,487
1506577212255,489
1506577212263,490
1506577212272,491
1506577212280,490
1506577212288,492
1506577212296,494
1506577212304,493
1506577212313,497
1506577212321,496
1506577212329,497
1506577212337,497
1506577212345,498
1506577212353,500
1506577212358,500
1506577212366,501
1506577212374,502
1506577212382,501
1506577212390,502
1506577212399,501
1506577212407,502
1506577212415,503
1506577212423,502
1506577212431,504
1506577212440,503
1506577212448,505
1506577212456,506
1506577212464,504
1506577212472,504
1506577212480,503
1506577212489,504
1506577212497,505
1506577212505,505
1506577212513,508
1506577212517,511
1506577212525,517
1506577212534,526
1506577212542,535
1506577212550,547
1506577212558,560
1506577212566,574
1506577212575,588
1506577212583,602
1506577212591,615
1506577212599,623
1506577212607,630
1506577212616,634
1506577212624,632
1506577212632,631
1506577212640,624
1506577212648,616
1506577212657,607
1506577212665,594
1506577212673,580
1506577212677,565
1506577212685,552
1506577212694,538
1506577212702,523
1506577212710,512
1506577212718,499
1506577212726,490
1506577212735,483
1506577212743,474
1506577212751,470
1506577212759,467
1506577212767,464
1506577212776,463
1506577212784,464
1506577212792,466
1506577212800,469
1506577212808,474
1506577212816,480
1506577212824,484
1506577212832,492
1506577212837,498
1506577212845,506
1506577212853,513
1506577212861,519
1506577212869,524
1506577212877,528
1506577212886,533
1506577212895,536
1506577212902,537
1506577212911,539
1506577212919,539
1506577212927,537
1506577212935,535
1506577212943,532
1506577212952,530
1506577212960,527
1506577212968,522
1506577212976,516
1506577212984,511
1506577212992,506
1506577212997,500
1506577213005,493
1506577213013,487
1506577213021,480
1506577213029,475
1506577213038,471
1506577213046,466
1506577213054,464
1506577213062,462
1506577213070,463
1506577213078,461
1506577213087,462
1506577213095,463
1506577213103,464
1506577213111,467
1506577213119,469
1506577213128,471
1506577213136,475
1506577213144,475
1506577213152,478
1506577213156,479
1506577213164,482
1506577213173,483
1506577213181,484
1506577213189,487
1506577213197,487
1506577213205,489
1506577213214,491
1506577213222,490
1506577213230,494
1506577213238,495
1506577213246,495
1506577213254,496
1506577213263,496
1506577213271,496
1506577213279,494
1506577213287,493
1506577213296,492
1506577213304,489
1506577213312,490
1506577213316,488
1506577213324,488
1506577213332,489
1506577213340,489
1506577213349,494
1506577213357,499
1506577213365,506
1506577213373,517
1506577213382,527
1506577213390,541
1506577213398,553
1506577213406,567
1506577213415,582
1506577213423,593
1506577213431,605
1506577213439,612
1506577213447,616
1506577213456,619
1506577213464,616
1506577213472,612
1506577213476,604
1506577213484,593
1506577213492,581
1506577213501,567
1506577213509,554
1506577213517,539
1506577213525,525
1506577213533,513
1506577213541,499
1506577213550,489
1506577213558,479
1506577213566,471
1506577213575,465
1506577213582,459
1506577213591,456
1506577213599,452
1506577213607,453
1506577213615,455
1506577213623,455
1506577213631,459
1506577213640,463
1506577213644,468
1506577213652,474
1506577213660,479
1506577213668,487
1506577213677,495
1506577213685,502
1506577213693,508
1506577213701,512
1506577213709,519
1506577213717,523
1506577213726,526
1506577213734,529
1506577213742,528
1506577213750,530
1506577213758,528
1506577213767,526
1506577213775,524
1506577213783,520
1506577213791,516
1506577213799,512
1506577213804,508
1506577213812,505
1506577213820,500
1506577213828,498
1506577213836,493
1506577213844,489
1506577213853,488
1506577213861,484
1506577213869,483
1506577213877,482
1506577213885,482
1506577213893,481
1506577213902,479
1506577213910,480
1506577213918,479
1506577213926,479
1506577213934,479
1506577213943,479
1506577213951,481
1506577213959,480
1506577213963,481
1506577213972,483
1506577213980,484
1506577213988,488
1506577213996,488
1506577214004,490
1506577214012,493
1506577214020,493
1506577214028,495
1506577214037,494
1506577214045,494
1506577214053,495
1506577214062,493
1506577214070,493
1506577214078,493
1506577214086,493
1506577214095,494
1506577214103,493
1506577214111,494
1506577214119,494
1506577214123,493
1506577214131,496
1506577214140,494
1506577214148,495
1506577214156,494
1506577214164,494
1506577214172,496
1506577214180,497
1506577214189,501
1506577214197,505
1506577214205,510
1506577214213,518
1506577214221,527
1506577214230,540
1506577214238,552
1506577214246,565
1506577214254,581
1506577214262,593
1506577214270,606
1506577214279,616
1506577214283,623
1506577214291,629
1506577214299,629
1506577214307,628
1506577214316,622
1506577214324,613
1506577214332,603
1506577214340,589
1506577214348,576
1506577214357,561
1506577214365,546
1506577214373,532
1506577214381,516
1506577214389,504
1506577214397,493
1506577214406,481
1506577214414,473
1506577214422,464
1506577214430,458
1506577214438,454
1506577214442,451
1506577214451,450
1506577214459,449
1506577214467,453
1506577214475,455
1506577214484,459
1506577214492,464
1506577214500,469
1506577214508,476
1506577214516,482
1506577214524,488
1506577214533,495
1506577214541,500
1506577214549,508
1506577214557,512
1506577214565,516
1506577214573,521
1506577214582,522
1506577214590,525
1506577214598,525
1506577214602,525
1506577214610,524
1506577214619,521
1506577214627,518
1506577214635,513
1506577214643,509
1506577214651,506
1506577214659,499
1506577214667,495
1506577214676,491
1506577214684,486
1506577214692,482
1506577214700,479
1506577214709,476
1506577214717,474
1506577214725,471
1506577214733,471
1506577214742,469
1506577214750,471
1506577214758,470
1506577214762,470
1506577214770,473
1506577214778,472
1506577214787,474
1506577214795,476
1506577214803,476
1506577214811,478
1506577214819,479
1506577214828,480
1506577214836,480
1506577214844,480
1506577214852,482
1506577214860,482
1506577214868,484
1506577214877,484
1506577214885,484
1506577214893,486
1506577214901,486
1506577214909,488
1506577214917,488
1506577214922,488
1506577214930,488
1506577214938,487
1506577214946,489
1506577214955,489
1506577214963,489
1506577214971,490
1506577214979,488
1506577214987,488
1506577214996,488
1506577215003,486
1506577215012,490
1506577215020,490
1506577215028,491
1506577215036,494
1506577215045,499
1506577215053,507
1506577215061,515
1506577215069,527
1506577215077,540
1506577215081,553
1506577215090,566
1506577215098,579
1506577215106,591
1506577215114,601
1506577215122,607
1506577215130,611
1506577215139,611
1506577215147,610
1506577215155,603
1506577215163,595
1506577215171,586
1506577215179,573
1506577215188,560
1506577215196,546
1506577215204,531
1506577215212,518
1506577215221,504
1506577215229,493
1506577215237,482
1506577215245,473
1506577215249,465
1506577215257,458
1506577215265,454
1506577215274,451
1506577215282,449
1506577215290,450
1506577215299,450
1506577215307,452
1506577215315,456
1506577215323,459
1506577215331,464
1506577215340,467
1506577215348,473
1506577215356,478
1506577215364,483
1506577215372,491
1506577215380,494
1506577215389,501
1506577215397,506
1506577215405,509
1506577215409,513
1506577215417,516
1506577215425,518
1506577215434,519
1506577215442,518
1506577215450,517
1506577215458,513
1506577215466,511
1506577215475,509
1506577215483,504
1506577215491,501
1506577215499,496
1506577215507,492
1506577215516,487
1506577215524,484
1506577215532,481
1506577215540,476
1506577215548,475
1506577215556,473
1506577215564,470
1506577215569,470
1506577215577,468
1506577215585,469
1506577215593,470
1506577215601,471
1506577215609,473
1506577215617,473
1506577215625,477
1506577215634,478
1506577215642,480
1506577215650,483
1506577215658,483
1506577215666,485
1506577215675,486
1506577215683,486
1506577215691,487
1506577215700,488
1506577215708,487
1506577215716,488
1506577215724,488
1506577215728,489
1506577215736,489
1506577215745,490
1506577215753,489
1506577215761,489
1506577215769,490
1506577215778,489
1506577215786,489
1506577215794,489
1506577215802,488
1506577215811,488
1506577215819,487
1506577215827,489
1506577215835,487
1506577215843,487
1506577215851,488
1506577215860,488
1506577215868,491
1506577215876,496
1506577215884,501
1506577215888,511
1506577215896,521
1506577215904,533
1506577215912,546
1506577215920,559
1506577215929,574
1506577215937,586
1506577215945,597
1506577215953,605
1506577215961,610
1506577215970,613
1506577215978,612
1506577215986,607
1506577215995,600
1506577216003,590
1506577216011,580
1506577216019,567
1506577216027,554
1506577216035,540
1506577216044,524
1506577216048,512
1506577216056,499
1506577216064,489
1506577216072,479
1506577216081,469
1506577216089,463
1506577216097,458
1506577216105,455
1506577216113,453
1506577216121,452
1506577216130,452
1506577216138,453
1506577216146,456
1506577216154,460
1506577216162,465
1506577216171,472
1506577216179,476
1506577216187,481
1506577216196,488
1506577216204,493
1506577216208,499
1506577216216,504
1506577216224,509
1506577216232,513
1506577216241,516
1506577216249,521
1506577216257,522
1506577216265,523
1506577216273,525
1506577216282,522
1506577216290,522
1506577216298,518
1506577216306,514
1506577216314,511
1506577216322,506
1506577216331,502
1506577216339,498
1506577216347,494
1506577216355,489
1506577216363,485
1506577216367,483
1506577216376,478
1506577216384,475
1506577216392,473
1506577216400,469
1506577216408,469
1506577216417,467
1506577216425,466
1506577216433,467
1506577216441,467
1506577216449,469
1506577216458,471
1506577216466,472
1506577216474,474
1506577216482,476
1506577216490,480
1506577216498,481
1506577216507,481
1506577216515,483
1506577216523,483
1506577216527,484
1506577216535,484
1506577216543,485
1506577216552,486
1506577216560,485
1506577216568,488
1506577216576,488
1506577216584,488
1506577216593,490
1506577216601,490
1506577216609,493
1506577216617,494
1506577216625,496
1506577216633,497
1506577216641,496
1506577216649,497
1506577216657,496
1506577216666,496
1506577216674,496
1506577216683,494
1506577216686,496
1506577216695,497
1506577216702,500
1506577216712,506
1506577216720,512
1506577216727,522
1506577216736,532
1506577216744,544
1506577216752,557
1506577216760,568
1506577216768,581
1506577216777,591
1506577216785,598
1506577216793,606
1506577216801,607
1506577216809,608
1506577216818,605
1506577216826,599
1506577216835,591
1506577216843,581
1506577216851,571
1506577216855,558
1506577216863,544
1506577216871,532
1506577216879,518
1506577216888,507
1506577216896,496
1506577216904,485
1506577216912,479
1506577216920,470
1506577216928,466
1506577216937,461
1506577216945,458
1506577216953,456
1506577216961,456
1506577216969,458
1506577216978,460
1506577216986,463
1506577216994,467
1506577217002,471
1506577217010,477
1506577217015,482
1506577217023,488
1506577217031,494
1506577217039,499
1506577217047,505
1506577217056,510
1506577217064,515
1506577217072,519
1506577217080,521
1506577217088,524
1506577217096,524
1506577217104,525
1506577217113,525
1506577217121,523
1506577217129,522
1506577217137,518
1506577217145,515
1506577217154,512
1506577217162,506
1506577217170,503
1506577217174,498
1506577217182,494
1506577217190,492
1506577217199,485
1506577217207,482
1506577217215,480
1506577217223,478
1506577217231,477
1506577217240,475
1506577217248,476
1506577217256,474
1506577217264,474
1506577217272,475
1506577217280,474
1506577217289,477
1506577217297,477
1506577217306,477
1506577217314,480
1506577217322,480
1506577217330,482
1506577217334,483
1506577217342,484
1506577217351,486
1506577217359,486
1506577217367,489
1506577217376,490
1506577217383,492
1506577217392,494
1506577217400,495
1506577217408,496
1506577217416,497
1506577217424,496
1506577217432,496
1506577217441,496
1506577217449,496
1506577217457,494
1506577217465,493
1506577217473,493
1506577217482,491
1506577217490,492
1506577217494,492
1506577217502,494
1506577217510,498
1506577217518,503
1506577217527,512
1506577217535,520
1506577217543,531
1506577217551,545
1506577217559,557
1506577217568,572
1506577217576,585
1506577217584,596
1506577217592,605
1506577217600,611
1506577217608,615
1506577217617,616
1506577217625,613
1506577217633,607
1506577217641,597
1506577217649,588
1506577217653,574
1506577217662,560
1506577217670,546
1506577217678,531
1506577217686,518
1506577217695,505
1506577217703,493
1506577217711,484
1506577217719,475
1506577217727,469
1506577217736,461
1506577217744,456
1506577217752,455
1506577217760,451
1506577217768,451
1506577217776,452
1506577217785,453
1506577217793,457
1506577217801,459
1506577217809,464
1506577217813,470
1506577217821,475
1506577217829,483
1506577217838,488
1506577217846,496
1506577217854,501
1506577217862,506
1506577217870,512
1506577217879,515
1506577217887,518
1506577217895,520
1506577217903,520
1506577217911,520
1506577217920,518
1506577217928,518
1506577217936,515
1506577217944,512
1506577217952,509
1506577217960,505
1506577217969,501
1506577217973,496
1506577217981,491
1506577217990,489
1506577217998,484
1506577218006,482
1506577218014,479
1506577218022,476
1506577218030,476
1506577218039,474
1506577218047,474
1506577218055,473
1506577218063,472
1506577218071,473
1506577218080,473
1506577218088,475
1506577218096,477
1506577218104,477
1506577218112,480
1506577218121,481
1506577218129,484
1506577218133,485
1506577218141,485
1506577218149,487
1506577218157,487
1506577218166,488
1506577218174,488
1506577218182,488
1506577218190,490
1506577218198,489
1506577218207,491
1506577218215,490
1506577218223,490
1506577218231,491
1506577218239,491
1506577218247,490
1506577218256,491
1506577218264,489
1506577218272,490
1506577218280,488
1506577218288,489
1506577218292,488
1506577218301,489
1506577218309,490
1506577218317,491
1506577218325,495
1506577218333,501
1506577218342,507
1506577218350,519
1506577218358,529
1506577218366,542
1506577218374,555
1506577218382,569
1506577218391,583
1506577218399,595
1506577218407,607
1506577218416,615
1506577218423,619
1506577218432,622
1506577218440,619
1506577218448,614
1506577218456,605
1506577218460,594
1506577218468,582
1506577218477,566
1506577218485,551
1506577218493,534
1506577218501,518
1506577218509,505
1506577218518,491
1506577218526,479
1506577218534,469
1506577218542,459
1506577218550,454
1506577218558,450
1506577218567,447
1506577218575,446
1506577218583,445
1506577218591,446
1506577218599,447
1506577218607,450
1506577218616,454
1506577218620,457
1506577218628,464
1506577218637,468
1506577218645,475
1506577218653,481
1506577218661,486
1506577218669,494
1506577218678,498
1506577218686,504
1506577218694,507
1506577218702,510
1506577218710,514
1506577218719,514
1506577218727,515
1506577218735,516
1506577218743,514
1506577218751,513
1506577218760,509
1506577218768,506
1506577218776,502
1506577218780,498
1506577218788,495
1506577218796,489
1506577218804,486
1506577218813,482
1506577218821,478
1506577218829,477
1506577218837,473
1506577218845,472
1506577218854,471
1506577218862,468
1506577218870,468
1506577218878,467
1506577218886,468
1506577218895,467
1506577218903,468
1506577218911,470
1506577218919,470
1506577218927,472
1506577218935,473
1506577218940,473
1506577218948,476
1506577218956,477
1506577218964,478
1506577218972,480
1506577218980,480
1506577218989,483
1506577218997,483
1506577219005,486
1506577219013,487
1506577219021,487
1506577219030,490
1506577219038,490
1506577219046,491
1506577219054,491
1506577219062,492
1506577219071,492
1506577219079,492
1506577219087,491
1506577219095,490
1506577219099,490
1506577219107,491
1506577219116,488
1506577219124,488
1506577219132,487
1506577219140,485
1506577219148,487
1506577219157,488
1506577219165,491
1506577219173,495
1506577219181,501
1506577219189,511
1506577219198,521
1506577219206,534
1506577219214,549
1506577219222,562
1506577219230,578
1506577219238,592
1506577219247,603
1506577219255,612
1506577219259,618
1506577219267,622
1506577219275,621
1506577219283,618
1506577219292,610
1506577219300,600
1506577219308,590
1506577219316,575
1506577219324,561
1506577219332,546
1506577219341,531
1506577219349,519
1506577219357,505
1506577219365,494
1506577219373,483
1506577219382,473
1506577219390,467
1506577219398,460
1506577219407,457
1506577219415,456
1506577219419,453
1506577219427,455
1506577219435,454
1506577219443,457
1506577219452,460
1506577219460,462
1506577219468,467
1506577219476,472
1506577219484,477
1506577219492,483
1506577219501,490
1506577219509,498
1506577219517,503
1506577219525,509
1506577219533,513
1506577219542,516
1506577219550,520
1506577219558,522
1506577219566,523
1506577219574,525
1506577219579,521
1506577219587,521
1506577219595,518
1506577219603,516
1506577219611,513
1506577219619,508
1506577219628,505
1506577219636,499
1506577219644,495
1506577219652,492
1506577219660,487
1506577219669,485
1506577219677,482
1506577219685,480
1506577219693,478
1506577219701,475
1506577219709,475
1506577219718,474
1506577219726,473
1506577219734,472
1506577219738,471
1506577219746,473
1506577219755,473
1506577219763,475
1506577219771,476
1506577219779,476
1506577219787,478
1506577219795,479
1506577219804,481
1506577219812,483
1506577219820,484
1506577219828,486
1506577219836,486
1506577219845,485
1506577219853,486
1506577219861,486
1506577219870,487
1506577219877,487
1506577219885,488
1506577219893,488
1506577219898,488
1506577219906,490
1506577219915,490
1506577219922,492
1506577219930,491
1506577219939,490
1506577219947,491
1506577219956,490
1506577219964,488
1506577219971,487
1506577219979,486
1506577219988,487
1506577219996,486
1506577220004,488
1506577220012,492
1506577220020,494
1506577220029,502
1506577220037,509
1506577220045,519
1506577220053,533
1506577220062,546
1506577220066,562
1506577220075,575
1506577220082,589
1506577220091,602
1506577220099,611
1506577220107,619
1506577220115,622
1506577220123,623
1506577220131,621
1506577220140,612
1506577220148,604
1506577220156,592
1506577220164,578
1506577220172,563
1506577220181,546
1506577220189,531
1506577220197,515
1506577220205,501
1506577220213,489
1506577220221,476
1506577220226,470
1506577220234,460
1506577220242,453
1506577220250,450
1506577220259,445
1506577220267,445
1506577220275,445
1506577220283,445
1506577220291,447
1506577220299,448
1506577220307,453
1506577220316,456
1506577220324,461
1506577220332,468
1506577220340,473
1506577220348,480
1506577220356,486
1506577220365,493
1506577220373,500
1506577220381,505
1506577220385,511
1506577220393,514
1506577220402,519
1506577220410,522
1506577220418,522
1506577220426,523
1506577220435,522
1506577220443,519
1506577220451,518
1506577220459,514
1506577220467,511
1506577220476,507
1506577220484,503
1506577220492,499
1506577220500,494
1506577220508,492
1506577220517,487
1506577220525,483
1506577220533,482
1506577220541,478
1506577220545,478
1506577220554,475
1506577220562,474
1506577220570,476
1506577220578,475
1506577220586,476
1506577220595,474
1506577220603,475
1506577220611,477
1506577220619,476
1506577220627,479
1506577220635,480
1506577220644,482
1506577220652,485
1506577220660,485
1506577220668,487
1506577220676,488
1506577220684,488
1506577220693,489
1506577220701,490
1506577220705,492
1506577220713,492
1506577220721,493
1506577220729,495
1506577220738,494
1506577220746,495
1506577220754,494
1506577220762,493
1506577220770,493
1506577220779,491
1506577220787,492
1506577220795,491
1506577220803,490
1506577220811,490
1506577220820,488
1506577220828,489
1506577220836,488
1506577220844,489
1506577220852,490
1506577220860,489
1506577220864,492
1506577220873,496
1506577220881,501
1506577220889,509
1506577220897,518
1506577220905,530
1506577220914,542
1506577220922,556
1506577220930,571
1506577220938,584
1506577220946,598
1506577220955,609
1506577220963,616
1506577220971,622
1506577220979,622
1506577220987,621
1506577220996,616
1506577221004,609
1506577221012,599
1506577221020,587
1506577221024,575
1506577221032,560
1506577221040,545
1506577221049,533
1506577221057,517
1506577221065,505
1506577221073,493
1506577221081,483
1506577221090,475
1506577221098,466
1506577221106,462
1506577221114,457
1506577221122,455
1506577221131,454
1506577221139,453
1506577221147,456
1506577221156,458
1506577221163,461
1506577221172,466
1506577221180,471
1506577221184,477
1506577221192,483
1506577221201,489
1506577221209,497
1506577221217,502
1506577221225,511
1506577221233,516
1506577221242,521
1506577221250,529
1506577221258,531
1506577221266,536
1506577221274,537
1506577221282,538
1506577221291,537
1506577221299,536
1506577221307,534
1506577221315,528
1506577221323,524
1506577221332,519
1506577221340,512
1506577221344,506
1506577221352,501
1506577221360,495
1506577221368,491
1506577221377,484
1506577221385,482
1506577221393,478
1506577221401,475
1506577221409,475
1506577221418,472
1506577221426,473
1506577221434,474
1506577221442,474
1506577221450,476
1506577221458,479
1506577221467,481
1506577221475,483
1506577221483,485
1506577221491,487
1506577221499,489
1506577221504,490
1506577221512,491
1506577221520,492
1506577221528,494
1506577221536,494
1506577221544,496
1506577221553,496
1506577221561,498
1506577221569,499
1506577221577,498
1506577221585,498
1506577221593,498
1506577221602,498
1506577221610,498
1506577221618,497
1506577221626,498
1506577221635,497
1506577221643,496
1506577221651,497
1506577221659,496
1506577221667,496
1506577221671,496
1506577221679,495
1506577221688,495
1506577221696,494
1506577221704,495
1506577221712,498
1506577221720,502
1506577221729,509
1506577221737,516
1506577221745,528
1506577221753,540
1506577221761,553
1506577221770,568
1506577221778,580
1506577221786,593
1506577221794,603
1506577221803,612
1506577221811,618
1506577221819,620
1506577221827,622
1506577221831,618
1506577221840,612
1506577221848,604
1506577221856,593
1506577221864,582
1506577221872,567
1506577221881,552
1506577221889,539
1506577221897,523
1506577221905,511
1506577221913,499
1506577221921,488
1506577221930,479
1506577221938,471
1506577221946,465
1506577221954,461
1506577221962,457
1506577221971,457
1506577221979,455
1506577221987,457
1506577221991,458
1506577221999,460
1506577222007,465
1506577222016,469
1506577222024,474
1506577222032,480
1506577222040,486
1506577222048,492
1506577222056,498
1506577222065,505
1506577222073,511
1506577222081,516
1506577222089,522
1506577222097,524
1506577222106,527
1506577222114,527
1506577222122,527
1506577222130,526
1506577222138,524
1506577222146,523
1506577222151,519
1506577222159,517
1506577222167,514
1506577222175,510
1506577222183,507
1506577222191,503
1506577222200,499
1506577222208,496
1506577222216,491
1506577222224,487
1506577222232,484
1506577222241,480
1506577222249,479
1506577222257,476
1506577222265,475
1506577222273,473
1506577222282,472
1506577222290,474
1506577222298,472
1506577222306,474
1506577222310,476
1506577222318,476
1506577222327,479
1506577222335,480
1506577222343,481
1506577222351,484
1506577222359,486
1506577222367,489
1506577222376,490
1506577222384,493
1506577222392,495
1506577222400,495
1506577222409,497
1506577222417,497
1506577222425,497
1506577222434,497
1506577222442,497
1506577222450,498
1506577222458,497
1506577222466,498
1506577222470,497
1506577222478,498
1506577222487,498
1506577222495,496
1506577222503,495
1506577222511,494
1506577222520,492
1506577222528,493
1506577222536,491
1506577222544,492
1506577222552,493
1506577222560,496
1506577222568,501
1506577222577,506
1506577222585,515
1506577222593,526
1506577222601,537
1506577222610,552
1506577222618,565
1506577222626,579
1506577222630,593
1506577222638,604
1506577222646,615
1506577222655,621
1506577222663,626
1506577222671,627
1506577222679,624
1506577222687,621
1506577222695,611
1506577222704,600
1506577222712,587
1506577222720,571
1506577222728,557
1506577222736,541
1506577222745,527
1506577222753,513
1506577222761,500
1506577222769,489
1506577222777,478
1506577222785,470
1506577222790,463
1506577222798,456
1506577222806,454
1506577222814,449
1506577222822,448
1506577222830,450
1506577222839,451
1506577222847,455
1506577222855,457
1506577222863,463
1506577222871,468
1506577222880,474
1506577222888,483
1506577222896,488
1506577222904,495
1506577222912,502
1506577222920,508
1506577222929,515
1506577222937,519
1506577222945,524
1506577222953,527
1506577222957,529
1506577222966,530
1506577222974,528
1506577222982,527
1506577222990,525
1506577222998,519
1506577223006,516
1506577223015,509
1506577223023,505
1506577223031,500
1506577223039,494
1506577223047,491
1506577223056,487
1506577223064,483
1506577223072,481
1506577223081,477
1506577223089,478
1506577223097,476
1506577223105,476
1506577223113,475
1506577223117,476
1506577223126,477
1506577223134,478
1506577223142,480
1506577223151,482
1506577223158,484
1506577223167,486
1506577223175,486
1506577223183,487
1506577223191,489
1506577223199,491
1506577223207,492
1506577223216,492
1506577223224,493
1506577223232,494
1506577223240,492
1506577223248,493
1506577223257,492
1506577223265,492
1506577223273,492
1506577223277,491
1506577223285,490
1506577223293,489
1506577223302,489
1506577223310,489
1506577223318,488
1506577223326,488
1506577223335,488
1506577223343,488
1506577223351,488
1506577223359,488
1506577223367,489
1506577223375,488
1506577223383,489
1506577223392,489
1506577223400,489
1506577223408,492
1506577223416,494
1506577223424,498
1506577223432,503
1506577223437,511
1506577223445,522
1506577223453,532
1506577223461,545
1506577223469,561
1506577223478,574
1506577223486,589
1506577223494,601
1506577223502,612
1506577223510,621
1506577223519,624
1506577223527,627
1506577223535,625
1506577223543,620
1506577223551,612
1506577223559,602
1506577223568,591
1506577223576,575
1506577223584,561
1506577223592,546
1506577223596,530
1506577223604,518
1506577223612,504
1506577223621,492
1506577223629,482
1506577223637,472
1506577223645,465
1506577223654,458
1506577223662,455
1506577223670,452
1506577223678,450
1506577223686,452
1506577223695,453
1506577223703,456
1506577223711,462
1506577223719,466
1506577223727,471
1506577223736,476
1506577223744,482
1506577223752,488
1506577223756,494
1506577223764,500
1506577223772,504
1506577223780,509
1506577223789,513
1506577223797,515
1506577223806,519
1506577223814,521
1506577223822,522
1506577223830,522
1506577223838,520
1506577223846,519
1506577223855,516
1506577223863,512
1506577223871,509
1506577223879,503
1506577223887,500
1506577223896,495
1506577223904,491
1506577223912,489
1506577223916,483
1506577223924,481
1506577223932,478
1506577223941,476
1506577223949,473
1506577223957,471
1506577223965,471
1506577223973,468
1506577223982,468
1506577223990,468
1506577223998,467
1506577224006,470
1506577224015,470
1506577224022,470
1506577224031,472
1506577224039,471
1506577224047,472
1506577224055,471
1506577224063,472
1506577224072,473
1506577224076,472
1506577224084,474
1506577224092,475
1506577224100,477
1506577224108,479
1506577224117,480
1506577224125,483
1506577224133,483
1506577224141,484
1506577224149,486
1506577224158,487
1506577224166,489
1506577224174,488
1506577224182,488
1506577224190,489
1506577224198,489
1506577224207,491
1506577224215,490
1506577224223,490
1506577224231,491
1506577224236,489
1506577224244,489
1506577224252,489
1506577224260,491
1506577224268,493
1506577224276,494
1506577224284,502
1506577224293,508
1506577224301,517
1506577224309,528
1506577224317,540
1506577224325,556
1506577224333,569
1506577224342,582
1506577224350,594
1506577224358,603
1506577224366,611
1506577224375,614
1506577224383,617
1506577224391,616
1506577224399,610
1506577224403,605
1506577224411,595
1506577224420,583
1506577224428,571
1506577224436,555
1506577224444,541
1506577224452,527
1506577224461,513
1506577224469,500
1506577224477,487
1506577224485,478
1506577224494,468
1506577224502,461
1506577224510,457
1506577224518,452
1506577224526,451
1506577224535,451
1506577224543,451
1506577224551,452
1506577224555,454
1506577224563,459
1506577224571,463
1506577224580,469
1506577224588,475
1506577224596,480
1506577224604,488
1506577224612,493
1506577224621,499
1506577224629,507
1506577224637,511
1506577224645,517
1506577224653,521
1506577224661,525
1506577224670,528
1506577224678,528
1506577224686,530
1506577224694,528
1506577224702,526
1506577224711,525
1506577224719,520
1506577224723,516
1506577224731,513
1506577224739,508
1506577224747,504
1506577224756,499
1506577224764,495
1506577224772,490
1506577224780,487
1506577224788,484
1506577224797,481
1506577224805,480
1506577224813,479
1506577224821,477
1506577224829,478
1506577224837,477
1506577224846,478
1506577224854,479
1506577224862,480
1506577224870,482
1506577224878,481
1506577224882,484
1506577224891,484
1506577224899,486
1506577224907,487
1506577224915,488
1506577224923,489
1506577224932,489
1506577224940,489
1506577224948,490
1506577224956,490
1506577224964,491
1506577224972,490
1506577224981,490
1506577224989,492
1506577224997,490
1506577225005,492
1506577225013,493
1506577225022,491
1506577225030,492
1506577225038,491
1506577225042,491
1506577225050,491
1506577225058,491
1506577225067,491
1506577225075,492
1506577225083,495
1506577225091,498
1506577225099,503
1506577225108,512
1506577225116,520
1506577225124,532
1506577225132,545
1506577225141,557
1506577225149,571
1506577225157,583
1506577225165,596
1506577225174,605
1506577225182,614
1506577225190,620
1506577225198,621
1506577225202,620
1506577225210,615
1506577225219,606
1506577225227,597
1506577225235,583
1506577225243,570
1506577225251,556
1506577225260,540
1506577225268,526
1506577225276,510
1506577225284,498
1506577225292,485
1506577225300,474
1506577225309,466
1506577225317,456
1506577225325,452
1506577225333,447
1506577225341,444
1506577225349,445
1506577225358,445
1506577225362,448
1506577225370,452
1506577225378,457
1506577225386,463
1506577225395,469
1506577225403,478
1506577225411,485
1506577225419,492
1506577225427,501
1506577225436,507
1506577225444,513
1506577225452,519
1506577225460,523
1506577225468,528
1506577225476,529
1506577225485,530
1506577225493,530
1506577225501,527
1506577225509,525
1506577225517,520
1506577225521,517
1506577225530,512
1506577225538,507
1506577225546,504
1506577225554,499
1506577225562,496
1506577225571,492
1506577225578,488
1506577225586,486
1506577225595,482
1506577225603,480
1506577225611,478
1506577225619,477
1506577225627,477
1506577225635,476
1506577225644,477
1506577225652,477
1506577225661,477
1506577225669,479
1506577225677,479
1506577225681,480
1506577225689,480
1506577225698,481
1506577225706,483
1506577225714,482
1506577225722,485
1506577225730,486
1506577225738,488
1506577225747,492
1506577225755,492
1506577225763,495
1506577225771,496
1506577225779,496
1506577225788,498
1506577225796,498
1506577225804,499
1506577225812,498
1506577225820,498
1506577225829,499
1506577225837,497
1506577225841,497
1506577225849,497
1506577225857,494
1506577225865,495
1506577225873,494
1506577225882,494
1506577225890,495
1506577225898,496
1506577225906,500
1506577225915,504
1506577225923,512
1506577225931,521
1506577225939,532
1506577225947,546
1506577225955,559
1506577225964,574
1506577225972,589
1506577225980,601
1506577225988,612
1506577225996,621
1506577226000,627
1506577226009,630
1506577226017,631
1506577226025,628
1506577226034,620
1506577226042,611
1506577226050,599
1506577226058,584
1506577226066,571
1506577226075,554
1506577226083,539
1506577226091,524
1506577226099,509
1506577226107,497
1506577226116,485
1506577226124,477
1506577226132,469
1506577226140,463
1506577226148,459
1506577226156,454
1506577226164,453
1506577226169,454
1506577226177,454
1506577226185,458
1506577226193,461
1506577226201,466
1506577226210,471
1506577226218,475
1506577226226,483
1506577226234,487
1506577226242,495
1506577226251,501
1506577226259,506
1506577226267,512
1506577226275,515
1506577226283,519
1506577226291,524
1506577226300,525
1506577226308,528
1506577226316,528
1506577226324,529
1506577226328,527
1506577226337,525
1506577226345,524
1506577226353,519
1506577226361,516
1506577226369,512
1506577226377,507
1506577226386,505
1506577226394,501
1506577226402,498
1506577226410,495
1506577226418,493
1506577226427,491
1506577226435,488
1506577226443,488
1506577226451,486
1506577226459,484
1506577226467,486
1506577226476,485
1506577226484,485
1506577226488,485
1506577226496,485
1506577226504,486
1506577226513,485
1506577226521,487
1506577226529,488
1506577226537,489
1506577226545,491
1506577226553,490
1506577226562,492
1506577226570,493
1506577226578,492
1506577226586,494
1506577226595,493
1506577226603,494
1506577226611,494
1506577226619,493
1506577226627,493
1506577226635,492
1506577226643,493
1506577226648,493
1506577226656,492
1506577226664,493
1506577226672,492
1506577226680,492
1506577226688,493
1506577226697,495
1506577226705,497
1506577226713,501
1506577226722,507
1506577226730,516
1506577226738,527
1506577226746,541
1506577226755,553
1506577226763,568
1506577226771,584
1506577226779,597
1506577226787,611
1506577226796,621
1506577226803,629
1506577226808,633
1506577226816,634
1506577226824,632
1506577226832,625
1506577226840,618
1506577226849,606
1506577226857,592
1506577226865,578
1506577226873,562
1506577226881,546
1506577226890,530
1506577226898,515
1506577226906,501
1506577226914,489
1506577226922,479
1506577226931,471
1506577226939,463
1506577226947,459
1506577226955,454
1506577226963,453
1506577226967,454
1506577226976,453
1506577226984,457
1506577226992,459
1506577227000,462
1506577227008,467
1506577227017,472
1506577227025,478
1506577227033,483
1506577227041,489
1506577227049,496
1506577227057,501
1506577227066,508
1506577227074,513
1506577227082,517
1506577227090,523
1506577227098,524
1506577227106,527
1506577227115,528
1506577227123,529
1506577227127,529
1506577227135,528
1506577227143,529
1506577227152,527
1506577227160,526
1506577227168,524
1506577227176,518
1506577227184,513
1506577227192,508
1506577227201,502
1506577227209,497
1506577227217,491
1506577227225,487
1506577227233,481
1506577227242,478
1506577227250,475
1506577227258,470
1506577227266,469
1506577227274,467
1506577227282,466
1506577227287,466
1506577227295,466
1506577227303,467
1506577227311,467
1506577227319,468
1506577227327,469
1506577227336,469
1506577227344,472
1506577227352,471
1506577227360,472
1506577227368,473
1506577227377,473
1506577227385,476
1506577227393,476
1506577227401,478
1506577227410,480
1506577227418,481
1506577227426,483
1506577227435,484
1506577227443,486
1506577227451,487
1506577227455,487
1506577227463,488
1506577227471,488
1506577227479,489
1506577227488,491
1506577227496,493
1506577227504,497
1506577227512,503
1506577227520,511
1506577227529,522
1506577227537,531
1506577227545,545
1506577227553,557
1506577227561,570
1506577227569,585
1506577227578,595
1506577227586,606
1506577227594,613
1506577227602,617
1506577227610,617
1506577227615,614
1506577227623,609
1506577227631,600
1506577227639,589
1506577227647,577
1506577227656,562
1506577227664,549
1506577227672,533
1506577227680,519
1506577227688,506
1506577227696,493
1506577227704,483
1506577227713,472
1506577227721,465
1506577227729,459
1506577227737,452
1506577227746,450
1506577227754,447
1506577227762,446
1506577227770,447
1506577227775,449
1506577227782,452
1506577227790,456
1506577227799,461
1506577227807,467
1506577227815,471
1506577227823,478
1506577227831,482
1506577227840,488
1506577227848,494
1506577227856,498
1506577227864,503
1506577227872,506
1506577227881,508
1506577227889,510
1506577227897,509
1506577227905,510
1506577227913,508
1506577227921,505
1506577227930,504
1506577227934,500
1506577227942,498
1506577227950,494
1506577227958,491
1506577227967,489
1506577227975,485
1506577227983,483
1506577227991,480
1506577227999,478
1506577228007,477
1506577228016,475
1506577228024,474
1506577228032,473
1506577228040,473
1506577228048,474
1506577228057,472
1506577228065,474
1506577228073,474
1506577228081,474
1506577228089,476
1506577228093,477
1506577228102,479
1506577228110,484
1506577228118,485
1506577228126,486
1506577228135,485
1506577228143,487
1506577228151,487
1506577228159,487
1506577228168,490
1506577228176,490
1506577228184,491
1506577228192,491
1506577228200,490
1506577228208,491
1506577228217,490
1506577228225,492
1506577228233,491
1506577228241,491
1506577228249,491
1506577228253,490
1506577228262,492
1506577228270,493
1506577228278,493
1506577228286,497
1506577228295,501
1506577228303,508
1506577228311,516
1506577228319,526
1506577228327,539
1506577228335,552
1506577228343,566
1506577228352,580
1506577228360,593
1506577228368,605
1506577228376,614
1506577228384,620
1506577228393,625
1506577228401,624
1506577228409,621
1506577228413,613
1506577228421,605
1506577228429,592
1506577228438,579
1506577228446,566
1506577228454,549
1506577228462,535
1506577228470,520
1506577228479,505
1506577228487,493
1506577228495,480
1506577228503,471
1506577228511,462
1506577228520,456
1506577228528,453
1506577228536,448
1506577228544,449
1506577228552,448
1506577228560,450
1506577228568,453
1506577228573,456
1506577228581,462
1506577228589,468
1506577228597,474
1506577228605,481
1506577228614,486
1506577228622,494
1506577228630,500
1506577228638,505
1506577228646,511
1506577228655,514
1506577228663,519
1506577228671,523
1506577228679,524
1506577228687,526
1506577228696,525
1506577228704,525
1506577228712,523
1506577228720,520
1506577228728,516
1506577228732,511
1506577228741,507
1506577228749,502
1506577228757,497
1506577228765,494
1506577228773,489
1506577228781,486
1506577228790,483
1506577228798,481
1506577228806,481
1506577228814,479
1506577228823,479
1506577228831,479
1506577228839,478
1506577228848,480
1506577228856,480
1506577228864,482
1506577228872,483
1506577228880,484
1506577228888,487
1506577228897,489
1506577228901,491
1506577228909,492
1506577228917,493
1506577228925,495
1506577228933,494
1506577228942,496
1506577228950,497
1506577228958,497
1506577228966,499
1506577228974,498
1506577228983,499
1506577228991,500
1506577228999,499
1506577229007,499
1506577229016,497
1506577229023,497
1506577229032,495
1506577229040,493
1506577229048,492
1506577229056,490
1506577229060,490
1506577229068,492
1506577229077,492
1506577229085,496
1506577229093,501
1506577229101,511
1506577229109,520
1506577229118,534
1506577229126,548
1506577229134,564
1506577229142,580
1506577229150,596
1506577229158,609
1506577229166,623
1506577229174,632
1506577229183,639
1506577229191,643
1506577229199,641
1506577229207,639
1506577229216,630
1506577229220,620
1506577229228,607
1506577229236,592
1506577229244,577
1506577229252,559
1506577229260,543
1506577229269,528
1506577229277,512
1506577229285,500
1506577229293,488
1506577229301,479
1506577229309,471
1506577229318,465
1506577229326,463
1506577229334,461
1506577229342,460
1506577229350,460
1506577229358,462
1506577229367,466
1506577229375,470
1506577229379,476
1506577229387,482
1506577229395,487
1506577229404,494
1506577229413,501
1506577229421,509
1506577229429,516
1506577229437,522
1506577229445,529
1506577229454,533
1506577229462,538
1506577229470,540
1506577229478,540
1506577229486,542
1506577229495,540
1506577229503,539
1506577229511,537
1506577229519,533
1506577229527,531
1506577229535,526
1506577229539,521
1506577229548,517
1506577229556,511
1506577229564,508
1506577229572,502
1506577229580,499
1506577229589,496
1506577229597,492
1506577229605,490
1506577229613,488
1506577229621,486
1506577229630,485
1506577229638,483
1506577229646,484
1506577229654,483
1506577229662,484
1506577229670,484
1506577229679,484
1506577229687,487
1506577229695,486
1506577229699,488
1506577229707,491
1506577229716,491
1506577229724,493
1506577229732,493
1506577229740,495
1506577229748,497
1506577229756,498
1506577229765,500
1506577229773,500
1506577229781,502
1506577229789,502
1506577229797,501
1506577229805,503
1506577229814,501
1506577229822,499
1506577229830,500
1506577229838,498
1506577229846,498
1506577229855,497
1506577229859,495
1506577229867,495
1506577229875,494
1506577229883,497
1506577229891,499
1506577229900,505
1506577229908,513
1506577229916,522
1506577229924,535
1506577229932,549
1506577229941,565
1506577229949,582
1506577229957,599
1506577229965,614
1506577229974,627
1506577229982,638
1506577229990,646
1506577229998,652
1506577230007,655
1506577230015,651
1506577230019,645
1506577230027,637
1506577230035,624
1506577230043,608
1506577230052,590
1506577230060,573
1506577230068,557
1506577230076,539
1506577230084,524
1506577230093,509
1506577230101,498
1506577230109,488
1506577230117,479
1506577230125,474
1506577230133,468
1506577230142,464
1506577230150,463
1506577230158,463
1506577230166,465
1506577230174,466
1506577230178,470
1506577230187,475
1506577230195,479
1506577230203,485
1506577230211,490
1506577230219,497
1506577230228,505
1506577230236,510
1506577230244,518
1506577230252,523
1506577230260,528
1506577230269,532
1506577230277,534
1506577230285,538
1506577230293,537
1506577230301,538
1506577230310,538
1506577230318,535
1506577230326,534
1506577230334,531
1506577230338,525
1506577230346,521
1506577230355,515
1506577230363,512
1506577230371,507
1506577230379,502
1506577230387,500
1506577230395,495
1506577230404,492
1506577230412,488
1506577230420,484
1506577230428,483
1506577230436,479
1506577230444,479
1506577230453,478
1506577230461,477
1506577230469,478
1506577230477,478
1506577230485,480
1506577230493,480
1506577230502,482
1506577230506,484
1506577230514,485
1506577230522,488
1506577230530,488
1506577230539,490
1506577230547,492
1506577230555,492
1506577230563,494
1506577230571,494
1506577230580,496
1506577230588,497
1506577230596,497
1506577230604,499
1506577230612,499
1506577230620,500
1506577230629,501
1506577230637,499
1506577230645,500
1506577230653,499
1506577230662,499
1506577230666,499
1506577230674,498
1506577230682,499
1506577230691,498
1506577230699,499
1506577230707,502
1506577230715,502
1506577230723,508
1506577230731,515
1506577230740,523
1506577230748,535
1506577230756,547
1506577230764,564
1506577230772,579
1506577230781,594
1506577230789,608
1506577230797,618
1506577230805,628
1506577230813,634
1506577230821,637
1506577230826,636
1506577230834,631
1506577230842,624
1506577230850,615
1506577230858,603
1506577230867,590
1506577230875,576
1506577230883,562
1506577230891,546
1506577230899,532
1506577230907,519
1506577230916,504
1506577230924,495
1506577230932,485
1506577230940,475
1506577230948,470
1506577230957,464
1506577230965,461
1506577230973,460
1506577230981,459
1506577230985,459
1506577230993,459
1506577231002,463
1506577231010,466
1506577231018,471
1506577231026,478
1506577231035,484
1506577231042,494
1506577231051,504
1506577231059,507
1506577231067,514
1506577231075,519
1506577231083,525
1506577231091,527
1506577231099,529
1506577231107,530
1506577231116,529
1506577231124,529
1506577231132,528
1506577231140,525
1506577231144,523
1506577231152,519
1506577231161,516
1506577231169,512
1506577231177,508
1506577231186,503
1506577231194,497
1506577231202,494
1506577231210,489
1506577231218,484
1506577231227,482
1506577231235,478
1506577231243,478
1506577231251,478
1506577231259,477
1506577231268,478
1506577231276,478
1506577231284,479
1506577231292,479
1506577231301,479
1506577231305,481
1506577231313,480
1506577231321,483
1506577231329,484
1506577231338,484
1506577231346,488
1506577231354,487
1506577231362,488
1506577231370,488
1506577231378,488
1506577231387,490
1506577231395,489
1506577231403,492
1506577231411,497
1506577231419,499
1506577231428,502
1506577231436,502
1506577231444,501
1506577231452,502
1506577231460,498
1506577231464,493
1506577231473,489
1506577231481,487
1506577231489,485
1506577231497,483
1506577231505,484
1506577231513,483
1506577231522,486
1506577231530,490
1506577231538,493
1506577231546,501
1506577231555,509
1506577231563,520
1506577231571,532
1506577231579,545
1506577231587,561
1506577231595,575
1506577231604,591
1506577231612,603
1506577231620,614
1506577231624,624
1506577231632,630
1506577231640,633
1506577231649,635
1506577231657,628
1506577231665,621
1506577231673,608
1506577231681,596
1506577231690,580
1506577231698,564
1506577231706,549
1506577231714,531
1506577231722,517
1506577231730,502
1506577231739,489
1506577231747,480
1506577231755,470
1506577231763,463
1506577231771,458
1506577231779,454
1506577231784,453
1506577231792,452
1506577231800,454
1506577231808,455
1506577231816,458
1506577231825,463
1506577231833,466
1506577231842,472
1506577231850,480
1506577231858,485
1506577231866,492
1506577231874,499
1506577231882,506
1506577231891,512
1506577231899,517
1506577231907,523
1506577231915,526
1506577231923,530
1506577231931,534
1506577231940,533
1506577231948,535
1506577231952,531
1506577231960,529
1506577231968,526
1506577231977,521
1506577231985,517
1506577231993,511
1506577232001,507
1506577232009,502
1506577232018,496
1506577232026,493
1506577232034,488
1506577232042,485
1506577232050,484
1506577232058,481
1506577232067,480
1506577232075,480
1506577232083,480
1506577232091,480
1506577232099,479
1506577232103,480
1506577232112,480
1506577232120,480
1506577232128,482
1506577232136,482
1506577232144,484
1506577232153,484
1506577232161,485
1506577232169,487
1506577232177,488
1506577232185,489
1506577232193,489
1506577232202,491
1506577232210,493
1506577232218,491
1506577232226,493
1506577232235,492
1506577232243,494
1506577232251,494
1506577232259,494
1506577232267,494
1506577232271,494
1506577232279,493
1506577232288,492
1506577232296,490
1506577232304,491
1506577232312,489
1506577232320,489
1506577232328,489
1506577232337,488
1506577232345,490
1506577232353,490
1506577232361,493
1506577232369,498
1506577232378,505
1506577232386,513
1506577232394,524
1506577232402,538
1506577232411,553
1506577232419,568
1506577232427,585
1506577232431,598
1506577232439,610
1506577232447,619
1506577232456,626
1506577232464,630
1506577232472,629
1506577232480,627
1506577232488,620
1506577232497,610
1506577232505,600
1506577232513,587
1506577232521,572
1506577232529,559
1506577232538,544
1506577232546,530
1506577232554,514
1506577232562,501
1506577232570,491
1506577232578,481
1506577232586,473
1506577232591,464
1506577232599,459
1506577232607,455
1506577232615,452
1506577232623,453
1506577232632,451
1506577232640,454
1506577232648,458
1506577232656,460
1506577232664,466
1506577232673,470
1506577232681,477
1506577232689,483
1506577232697,488
1506577232705,496
1506577232713,501
1506577232722,508
1506577232730,513
1506577232738,516
1506577232746,522
1506577232750,524
1506577232759,527
1506577232767,529
1506577232775,527
1506577232783,527
1506577232791,524
1506577232799,520
1506577232808,517
1506577232816,512
1506577232824,510
1506577232832,503
1506577232840,498
1506577232849,494
1506577232857,489
1506577232865,485
1506577232873,481
1506577232882,479
1506577232890,475
1506577232898,473
1506577232906,473
1506577232910,471
1506577232919,472
1506577232927,474
1506577232935,474
1506577232943,477
1506577232951,476
1506577232960,476
1506577232968,479
1506577232976,479
1506577232984,481
1506577232992,482
1506577233000,485
1506577233009,487
1506577233017,489
1506577233025,492
1506577233033,492
1506577233041,494
1506577233050,496
1506577233058,496
1506577233066,498
1506577233070,497
1506577233078,497
1506577233086,497
1506577233095,495
1506577233103,496
1506577233111,495
1506577233119,494
1506577233127,494
1506577233136,493
1506577233144,492
1506577233152,491
1506577233160,492
1506577233168,494
1506577233177,494
1506577233185,500
1506577233193,504
1506577233201,511
1506577233209,521
1506577233218,531
1506577233226,545
1506577233230,560
1506577233238,574
1506577233246,588
1506577233254,600
1506577233262,613
1506577233271,621
1506577233279,626
1506577233287,631
1506577233295,628
1506577233303,628
1506577233311,622
1506577233320,613
1506577233328,603
1506577233336,589
1506577233344,576
1506577233353,561
1506577233361,546
1506577233369,531
1506577233377,516
1506577233385,504
1506577233389,492
1506577233397,482
1506577233406,475
1506577233414,467
1506577233422,462
1506577233430,460
1506577233438,457
1506577233447,456
1506577233455,455
1506577233463,458
1506577233471,460
1506577233479,463
1506577233488,470
1506577233496,473
1506577233504,480
1506577233512,486
1506577233520,494
1506577233528,500
1506577233537,503
1506577233545,508
1506577233549,513
1506577233557,515
1506577233565,524
1506577233573,521
1506577233582,528
1506577233590,525
1506577233598,522
1506577233606,524
1506577233615,522
1506577233623,516
1506577233631,512
1506577233640,510
1506577233648,506
1506577233656,499
1506577233664,498
1506577233672,491
1506577233680,487
1506577233688,484
1506577233696,480
1506577233705,478
1506577233713,477
1506577233717,474
1506577233725,473
1506577233733,472
1506577233742,472
1506577233750,472
1506577233758,472
1506577233766,474
1506577233774,474
1506577233782,477
1506577233791,478
1506577233799,479
1506577233807,481
1506577233815,481
1506577233823,482
1506577233832,484
1506577233840,484
1506577233848,486
1506577233856,486
1506577233864,488
1506577233872,488
1506577233877,487
1506577233885,489
1506577233893,489
1506577233902,490
1506577233910,490
1506577233918,489
1506577233926,489
1506577233934,491
1506577233942,492
1506577233951,490
1506577233959,488
1506577233967,488
1506577233975,487
1506577233983,488
1506577233992,489
1506577234000,490
1506577234008,496
1506577234016,500
1506577234024,508
1506577234032,518
1506577234037,531
1506577234045,545
1506577234053,557
1506577234061,572
1506577234069,585
1506577234078,597
1506577234086,610
1506577234094,616
1506577234102,621
1506577234110,622
1506577234118,619
1506577234127,615
1506577234135,606
1506577234143,597
1506577234151,584
1506577234159,570
1506577234168,557
1506577234176,541
1506577234184,529
1506577234192,517
1506577234196,504
1506577234204,494
1506577234212,483
1506577234221,475
1506577234229,469
1506577234237,463
1506577234245,461
1506577234253,457
1506577234262,458
1506577234270,458
1506577234278,458
1506577234286,462
1506577234295,464
1506577234303,468
1506577234311,473
1506577234319,476
1506577234327,482
1506577234335,487
1506577234343,493
1506577234352,498
1506577234356,502
1506577234364,508
1506577234372,511
1506577234380,515
1506577234388,519
1506577234397,521
1506577234405,524
1506577234414,523
1506577234422,522
1506577234430,521
1506577234438,518
1506577234446,516
1506577234455,512
1506577234463,509
1506577234471,504
1506577234479,501
1506577234487,499
1506577234496,493
1506577234504,489
1506577234512,486
1506577234516,483
1506577234524,481
1506577234532,478
1506577234541,478
1506577234549,478
1506577234557,477
1506577234565,478
1506577234573,478
1506577234581,479
1506577234590,480
1506577234598,481
1506577234606,482
1506577234614,483
1506577234622,485
1506577234630,487
1506577234639,488
1506577234647,490
1506577234655,488
1506577234663,491
1506577234671,493
1506577234676,492
1506577234684,493
1506577234692,492
1506577234700,493
1506577234708,492
1506577234717,492
1506577234725,493
1506577234733,492
1506577234741,492
1506577234749,492
1506577234757,490
1506577234766,492
1506577234774,490
1506577234782,491
1506577234790,492
1506577234798,490
1506577234806,492
1506577234815,493
1506577234823,496
1506577234831,501
1506577234835,506
1506577234843,515
1506577234852,523
1506577234860,536
1506577234868,548
1506577234876,560
1506577234884,575
1506577234892,587
1506577234901,598
1506577234909,609
1506577234917,617
1506577234925,623
1506577234933,627
1506577234942,627
1506577234950,623
1506577234958,615
1506577234966,608
1506577234974,594
1506577234982,581
1506577234991,567
1506577234999,551
1506577235003,537
1506577235011,522
1506577235019,509
1506577235027,497
1506577235036,486
1506577235044,479
1506577235052,469
1506577235060,464
1506577235068,458
1506577235077,454
1506577235085,455
1506577235093,453
1506577235102,455
1506577235110,462
1506577235118,464
1506577235126,472
1506577235134,478
1506577235143,480
1506577235151,484
1506577235159,493
1506577235163,499
1506577235171,504
1506577235179,511
1506577235188,513
1506577235196,517
1506577235204,524
1506577235212,522
1506577235220,523
1506577235229,528
1506577235237,525
1506577235245,523
1506577235253,519
1506577235261,516
1506577235269,513
1506577235278,509
1506577235286,507
1506577235294,502
1506577235302,498
1506577235310,497
1506577235318,493
1506577235323,492
1506577235331,490
1506577235339,490
1506577235347,488
1506577235356,486
1506577235364,486
1506577235372,484
1506577235380,483
1506577235388,484
1506577235397,482
1506577235405,484
1506577235413,483
1506577235421,484
1506577235429,485
1506577235438,485
1506577235446,488
1506577235454,489
1506577235462,489
1506577235470,491
1506577235478,491
1506577235482,495
1506577235491,494
1506577235499,495
1506577235507,496
1506577235515,494
1506577235523,495
1506577235531,494
1506577235540,494
1506577235548,493
1506577235556,492
1506577235564,493
1506577235572,491
1506577235581,492
1506577235589,491
1506577235597,489
1506577235605,490
1506577235614,490
1506577235621,491
1506577235630,492
1506577235638,493
1506577235642,497
1506577235650,501
1506577235658,507
1506577235666,515
1506577235675,524
1506577235683,537
1506577235691,549
1506577235699,561
1506577235707,576
1506577235716,587
1506577235724,602
1506577235732,610
1506577235740,616
1506577235748,619
1506577235757,618
1506577235765,613
1506577235773,603
1506577235781,595
1506577235789,584
1506577235798,569
1506577235802,557
1506577235810,542
1506577235818,528
1506577235827,514
1506577235835,502
1506577235843,492
1506577235851,480
1506577235859,472
1506577235868,465
1506577235876,459
1506577235884,456
1506577235892,453
1506577235900,451
1506577235908,452
1506577235917,451
1506577235925,454
1506577235933,457
1506577235941,460
1506577235949,466
1506577235958,470
1506577235962,476
1506577235970,483
1506577235978,488
1506577235986,495
1506577235995,498
1506577236003,503
1506577236011,506
1506577236019,509
1506577236027,512
1506577236035,515
1506577236044,517
1506577236052,516
1506577236060,515
1506577236068,516
1506577236076,512
1506577236084,511
1506577236093,508
1506577236101,504
1506577236109,500
1506577236117,494
1506577236121,492
1506577236129,487
1506577236138,484
1506577236146,481
1506577236154,477
1506577236162,475
1506577236170,472
1506577236179,471
1506577236187,470
1506577236195,470
1506577236203,471
1506577236211,472
1506577236220,471
1506577236228,472
1506577236236,471
1506577236244,473
1506577236252,474
1506577236260,477
1506577236269,479
1506577236277,477
1506577236281,479
1506577236289,480
1506577236297,481
1506577236305,482
1506577236314,483
1506577236322,484
1506577236330,484
1506577236338,485
1506577236346,486
1506577236355,487
1506577236363,488
1506577236371,487
1506577236379,487
1506577236387,488
1506577236396,488
1506577236404,488
1506577236412,487
1506577236420,486
1506577236428,487
1506577236436,485
1506577236441,485
1506577236449,485
1506577236457,486
1506577236465,489
1506577236473,491
1506577236482,499
1506577236490,506
1506577236498,514
1506577236506,528
1506577236515,536
1506577236523,547
1506577236531,560
1506577236539,570
1506577236547,581
1506577236556,589
1506577236564,596
1506577236572,600
1506577236580,602
1506577236588,601
1506577236597,595
1506577236601,589
1506577236609,580
1506577236617,569
1506577236625,559
1506577236633,545
1506577236642,533
1506577236650,521
1506577236658,508
1506577236666,499
1506577236674,489
1506577236683,482
1506577236691,473
1506577236699,466
1506577236707,463
1506577236715,459
1506577236723,458
1506577236732,457
1506577236740,457
1506577236748,459
1506577236756,460
1506577236764,463
1506577236768,468
1506577236777,471
1506577236785,476
1506577236793,479
1506577236801,485
1506577236809,489
1506577236818,493
1506577236826,498
1506577236834,500
1506577236842,504
1506577236850,506
1506577236859,508
1506577236867,511
1506577236875,512
1506577236883,512
1506577236891,511
1506577236899,508
1506577236908,506
1506577236916,502
1506577236924,499
1506577236928,495
1506577236936,491
1506577236944,489
1506577236953,485
1506577236961,483
1506577236969,481
1506577236977,478
1506577236985,478
1506577236993,478
1506577237002,477
1506577237010,477
1506577237018,476
1506577237026,476
1506577237035,473
1506577237043,474
1506577237051,473
1506577237059,473
1506577237067,475
1506577237076,474
1506577237083,475
1506577237088,476
1506577237096,479
1506577237104,480
1506577237112,479
1506577237120,481
1506577237129,482
1506577237137,483
1506577237145,488
1506577237154,486
1506577237162,486
1506577237170,486
1506577237178,485
1506577237186,486
1506577237195,485
1506577237203,487
1506577237211,487
1506577237219,487
1506577237227,491
1506577237236,489
1506577237244,490
1506577237248,490
1506577237256,487
1506577237264,489
1506577237272,488
1506577237281,489
1506577237289,493
1506577237297,498
1506577237305,505
1506577237313,511
1506577237321,521
1506577237330,531
1506577237338,545
1506577237346,557
1506577237354,565
1506577237362,575
1506577237371,584
1506577237379,590
1506577237387,594
1506577237395,595
1506577237403,594
1506577237407,590
1506577237416,584
1506577237424,577
1506577237432,567
1506577237440,557
1506577237448,549
1506577237457,535
1506577237465,525
1506577237473,514
1506577237481,503
1506577237489,493
1506577237497,483
1506577237506,476
1506577237514,468
1506577237522,464
1506577237530,461
1506577237538,456
1506577237547,458
1506577237555,455
1506577237563,456
1506577237567,460
1506577237576,461
1506577237583,465
1506577237592,467
1506577237600,475
1506577237608,478
1506577237617,480
1506577237624,487
1506577237633,489
1506577237641,492
1506577237649,495
1506577237657,496
1506577237665,501
1506577237673,502
1506577237682,503
1506577237690,506
1506577237698,505
1506577237706,508
1506577237714,506
1506577237722,505
1506577237727,503
1506577237735,498
1506577237743,497
1506577237752,492
1506577237760,489
1506577237768,487
1506577237776,484
1506577237784,483
1506577237792,481
1506577237800,479
1506577237809,477
1506577237817,475
1506577237825,475
1506577237833,473
1506577237841,473
1506577237849,473
1506577237858,473
1506577237866,474
1506577237875,474
1506577237883,475
1506577237887,477
1506577237895,478
1506577237903,479
1506577237911,479
1506577237920,482
1506577237928,483
1506577237936,483
1506577237944,485
1506577237952,486
1506577237961,487
1506577237969,489
1506577237977,486
1506577237985,487
1506577237993,486
1506577238001,486
1506577238010,488
1506577238018,486
1506577238026,490
1506577238034,489
1506577238042,487
1506577238047,489
1506577238055,485
1506577238063,485
1506577238071,484
1506577238079,484
1506577238087,486
1506577238096,488
1506577238104,493
1506577238112,498
1506577238120,506
1506577238128,515
1506577238137,526
1506577238145,540
1506577238153,551
1506577238161,562
1506577238169,577
1506577238177,585
1506577238186,592
1506577238194,603
1506577238202,605
1506577238206,606
1506577238215,604
1506577238222,598
1506577238231,588
1506577238239,577
1506577238247,566
1506577238255,553
1506577238263,543
1506577238272,531
1506577238280,522
1506577238288,508
1506577238296,498
1506577238304,489
1506577238312,484
1506577238321,477
1506577238329,475
1506577238336,468
1506577238345,470
1506577238353,463
1506577238361,459
1506577238365,461
1506577238373,463
1506577238382,464
1506577238390,466
1506577238398,468
1506577238406,473
1506577238414,477
1506577238423,484
1506577238431,488
1506577238440,496
1506577238448,502
1506577238456,505
1506577238464,510
1506577238472,513
1506577238480,516
1506577238489,519
1506577238497,520
1506577238505,523
1506577238513,522
1506577238521,520
1506577238529,519
1506577238534,515
1506577238542,513
1506577238550,509
1506577238558,505
1506577238566,502
1506577238575,497
1506577238583,494
1506577238591,490
1506577238599,488
1506577238607,486
1506577238616,483
1506577238624,484
1506577238632,483
1506577238640,482
1506577238648,483
1506577238656,482
1506577238665,483
1506577238673,484
1506577238681,484
1506577238689,486
1506577238693,486
1506577238701,489
1506577238709,489
1506577238718,490
1506577238726,492
1506577238735,491
1506577238743,494
1506577238751,494
1506577238759,494
1506577238767,496
1506577238776,494
1506577238784,496
1506577238792,496
1506577238800,495
1506577238808,495
1506577238817,495
1506577238825,495
1506577238833,493
1506577238841,494
1506577238849,495
1506577238853,494
1506577238862,497
1506577238870,498
1506577238878,498
1506577238886,506
1506577238894,508
1506577238902,514
1506577238911,520
1506577238919,530
1506577238927,541
1506577238935,552
1506577238943,566
1506577238952,579
1506577238960,590
1506577238968,603
1506577238976,608
1506577238984,614
1506577238992,616
1506577239001,614
1506577239009,612
1506577239013,604
1506577239021,597
1506577239029,588
1506577239037,576
1506577239046,566
1506577239054,555
1506577239062,542
1506577239070,529
1506577239079,516
1506577239087,507
1506577239095,498
1506577239103,492
1506577239111,483
1506577239119,476
1506577239128,472
1506577239136,468
1506577239144,467
1506577239152,466
1506577239160,469
1506577239168,473
1506577239173,475
1506577239181,480
1506577239189,482
1506577239197,485
1506577239205,491
1506577239213,495
1506577239222,502
1506577239230,508
1506577239238,512
1506577239246,518
1506577239255,520
1506577239263,525
1506577239271,528
1506577239279,528
1506577239287,531
1506577239295,529
1506577239304,529
1506577239312,526
1506577239320,523
1506577239328,521
1506577239332,516
1506577239340,514
1506577239349,510
1506577239357,505
1506577239365,504
1506577239373,500
1506577239381,497
1506577239389,494
1506577239398,491
1506577239406,489
1506577239414,486
1506577239423,486
1506577239431,484
1506577239439,483
1506577239447,486
1506577239456,484
1506577239464,484
1506577239472,486
1506577239480,485
1506577239488,487
1506577239492,487
1506577239501,490
1506577239509,490
1506577239517,489
1506577239525,491
1506577239533,491
1506577239541,492
1506577239550,493
1506577239558,493
1506577239566,495
1506577239574,494
1506577239582,495
1506577239591,498
1506577239599,497
1506577239607,499
1506577239615,497
1506577239623,498
1506577239631,497
1506577239640,495
1506577239648,496
1506577239652,493
1506577239660,495
1506577239668,499
1506577239677,501
1506577239685,507
1506577239693,513
1506577239701,524
1506577239709,534
1506577239717,546
1506577239726,561
1506577239734,574
1506577239742,588
1506577239750,600
1506577239758,609
1506577239766,618
1506577239775,623
1506577239783,625
1506577239791,623
1506577239799,619
1506577239807,612
1506577239811,602
1506577239820,592
1506577239828,579
1506577239836,565
1506577239844,553
1506577239852,537
1506577239861,525
1506577239869,514
1506577239877,503
1506577239885,494
1506577239893,486
1506577239901,480
1506577239910,473
1506577239918,469
1506577239926,468
1506577239934,465
1506577239943,466
1506577239951,467
1506577239959,468
1506577239967,472
1506577239975,477
1506577239979,482
1506577239988,488
1506577239996,492
1506577240004,497
1506577240012,501
1506577240020,505
1506577240029,509
1506577240037,512
1506577240045,518
1506577240053,519
1506577240061,519
1506577240069,521
1506577240078,520
1506577240086,521
1506577240094,518
1506577240102,516
1506577240110,514
1506577240119,514
1506577240127,515
1506577240135,506
1506577240139,501
1506577240147,497
1506577240156,491
1506577240164,489
1506577240172,485
1506577240180,484
1506577240188,483
1506577240197,480
1506577240205,481
1506577240213,479
1506577240221,479
1506577240230,479
1506577240238,477
1506577240246,479
1506577240254,478
1506577240262,478
1506577240271,480
1506577240279,481
1506577240287,484
1506577240295,484
1506577240299,485
1506577240308,486
1506577240316,486
1506577240324,488
1506577240332,487
1506577240340,488
1506577240348,489
1506577240357,488
1506577240365,490
1506577240373,489
1506577240381,491
1506577240389,491
1506577240397,490
1506577240406,491
1506577240414,489
1506577240422,489
1506577240430,489
1506577240438,487
1506577240446,488
1506577240455,489
1506577240459,490
1506577240467,494
1506577240476,496
1506577240483,502
1506577240491,510
1506577240499,520
1506577240507,531
1506577240516,544
1506577240524,559
1506577240532,571
1506577240540,585
1506577240548,595
1506577240556,602
1506577240565,612
1506577240573,614
1506577240581,615
1506577240590,612
1506577240598,607
1506577240606,601
1506577240614,591
1506577240618,580
1506577240627,568
1506577240635,554
1506577240643,541
1506577240651,529
1506577240659,518
1506577240668,507
1506577240676,498
1506577240684,491
1506577240692,482
1506577240700,475
1506577240708,471
1506577240717,465
1506577240725,463
1506577240733,461
1506577240741,461
1506577240749,463
1506577240758,464
1506577240766,467
1506577240774,469
1506577240778,474
1506577240786,479
1506577240794,483
1506577240803,488
1506577240811,491
1506577240819,494
1506577240828,502
1506577240836,504
1506577240844,507
1506577240852,510
1506577240860,510
1506577240868,511
1506577240877,510
1506577240885,509
1506577240893,507
1506577240901,505
1506577240909,504
1506577240918,500
1506577240926,498
1506577240934,495
1506577240938,492
1506577240946,490
1506577240955,487
1506577240963,485
1506577240971,482
1506577240979,481
1506577240987,481
1506577240996,478
1506577241004,479
1506577241012,477
1506577241020,476
1506577241028,478
1506577241036,477
1506577241044,478
1506577241053,478
1506577241061,478
1506577241069,480
1506577241077,479
1506577241085,481
1506577241093,482
1506577241098,481
1506577241106,485
1506577241114,483
1506577241122,485
1506577241130,486
1506577241139,485
1506577241147,487
1506577241155,487
1506577241163,488
1506577241171,487
1506577241180,487
1506577241188,489
1506577241196,488
1506577241204,489
1506577241212,489
1506577241220,488
1506577241229,488
1506577241237,487
1506577241245,487
1506577241253,487
1506577241257,486
1506577241265,489
1506577241274,490
1506577241282,495
1506577241290,501
1506577241298,509
1506577241306,520
1506577241315,529
1506577241323,542
1506577241331,554
1506577241339,566
1506577241347,579
1506577241356,588
1506577241364,598
1506577241372,604
1506577241380,607
1506577241388,608
1506577241397,605
1506577241405,601
1506577241413,594
1506577241417,584
1506577241425,574
1506577241433,560
1506577241442,548
1506577241450,536
1506577241458,523
1506577241466,513
1506577241474,502
1506577241482,494
1506577241491,486
1506577241499,479
1506577241507,476
1506577241515,471
1506577241523,467
1506577241531,466
1506577241540,465
1506577241548,466
1506577241556,467
1506577241564,470
1506577241572,472
1506577241577,475
1506577241585,480
1506577241593,483
1506577241602,489
1506577241609,494
1506577241617,498
1506577241626,503
1506577241634,506
1506577241642,509
1506577241650,513
1506577241658,515
1506577241667,518
1506577241675,517
1506577241683,517
1506577241692,515
1506577241700,512
1506577241707,510
1506577241716,503
1506577241724,500
1506577241732,497
1506577241740,493
1506577241744,492
1506577241752,489
1506577241761,488
1506577241769,487
1506577241777,486
1506577241785,487
1506577241794,485
1506577241802,486
1506577241810,486
1506577241818,486
1506577241827,488
1506577241835,488
1506577241843,488
1506577241851,489
1506577241859,489
1506577241868,490
1506577241876,491
1506577241884,493
1506577241892,494
1506577241900,495
1506577241904,498
1506577241912,497
1506577241920,500
1506577241928,502
1506577241937,501
1506577241945,503
1506577241953,503
1506577241961,504
1506577241969,505
1506577241978,505
1506577241986,506
1506577241995,505
1506577242003,506
1506577242011,507
1506577242019,506
1506577242028,507
1506577242036,507
1506577242044,507
1506577242052,508
1506577242060,507
1506577242064,509
1506577242073,509
1506577242081,512
1506577242089,518
1506577242097,523
1506577242105,533
1506577242113,541
1506577242122,552
1506577242130,565
1506577242138,575
1506577242146,586
1506577242155,594
1506577242163,601
1506577242171,607
1506577242179,608
1506577242187,609
1506577242196,605
1506577242203,600
1506577242212,593
1506577242220,583
1506577242224,573
1506577242232,560
1506577242241,548
1506577242249,538
1506577242257,526
1506577242265,517
1506577242273,507
1506577242281,499
1506577242290,492
1506577242298,485
1506577242306,481
1506577242314,477
1506577242322,474
1506577242331,473
1506577242339,471
1506577242347,471
1506577242355,472
1506577242363,474
1506577242371,477
1506577242380,480
1506577242384,485
1506577242392,489
1506577242400,495
1506577242408,501
1506577242417,506
1506577242425,512
1506577242433,515
1506577242441,518
1506577242449,522
1506577242457,523
1506577242466,524
1506577242474,524
1506577242482,523
1506577242490,521
1506577242498,518
1506577242506,516
1506577242515,512
1506577242523,508
1506577242531,505
1506577242539,500
1506577242543,497
1506577242551,493
1506577242560,490
1506577242568,488
1506577242576,486
1506577242584,485
1506577242592,482
1506577242601,482
1506577242609,483
1506577242617,481
1506577242625,483
1506577242633,483
1506577242642,483
1506577242650,485
1506577242658,485
1506577242666,487
1506577242675,487
1506577242683,488
1506577242691,489
1506577242699,490
1506577242703,492
1506577242712,492
1506577242720,492
1506577242728,494
1506577242736,493
1506577242744,494
1506577242753,494
1506577242761,494
1506577242769,495
1506577242777,494
1506577242785,495
1506577242793,494
1506577242802,494
1506577242810,495
1506577242818,494
1506577242826,494
1506577242834,493
1506577242843,493
1506577242851,494
1506577242859,494
1506577242863,496
1506577242871,498
1506577242879,502
1506577242888,509
1506577242896,516
1506577242904,527
1506577242912,538
1506577242920,550
1506577242928,564
1506577242937,575
1506577242945,588
1506577242953,597
1506577242961,605
1506577242969,611
1506577242977,613
1506577242986,614
1506577242994,609
1506577243002,604
1506577243010,597
1506577243018,587
1506577243022,578
1506577243031,566
1506577243039,554
1506577243047,543
1506577243056,531
1506577243063,521
1506577243071,510
1506577243080,502
1506577243088,495
1506577243096,488
1506577243104,484
1506577243113,479
1506577243121,475
1506577243129,474
1506577243137,471
1506577243146,472
1506577243154,473
1506577243162,476
1506577243170,479
1506577243178,482
1506577243182,487
1506577243190,491
1506577243199,494
1506577243207,500
1506577243215,503
1506577243223,508
1506577243231,512
1506577243240,515
1506577243248,518
1506577243256,520
1506577243264,522
1506577243272,523
1506577243280,523
1506577243289,522
1506577243297,520
1506577243305,519
1506577243313,515
1506577243321,511
1506577243329,509
1506577243338,504
1506577243342,500
1506577243351,496
1506577243358,493
1506577243366,490
1506577243375,486
1506577243383,484
1506577243391,481
1506577243399,479
1506577243407,480
1506577243416,478
1506577243424,479
1506577243432,480
1506577243440,479
1506577243449,482
1506577243457,483
1506577243464,484
1506577243473,484
1506577243481,485
1506577243489,487
1506577243497,487
1506577243505,489
1506577243510,489
1506577243518,489
1506577243526,491
1506577243534,491
1506577243543,491
1506577243551,492
1506577243559,491
1506577243567,492
1506577243575,492
1506577243583,492
1506577243591,492
1506577243600,492
1506577243608,493
1506577243616,490
1506577243624,492
1506577243632,491
1506577243640,490
1506577243649,491
1506577243657,490
1506577243665,491
1506577243669,492
1506577243677,492
1506577243685,496
1506577243694,499
1506577243702,507
1506577243710,514
1506577243718,523
1506577243726,537
1506577243735,549
1506577243743,563
1506577243751,577
1506577243759,589
1506577243768,600
1506577243776,608
1506577243785,614
1506577243793,617
1506577243801,616
1506577243809,614
1506577243817,607
1506577243825,599
1506577243830,589
1506577243838,575
1506577243846,563
1506577243854,548
1506577243862,535
1506577243871,521
1506577243879,509
1506577243887,499
1506577243895,488
1506577243903,481
1506577243911,474
1506577243920,468
1506577243928,465
1506577243936,461
1506577243944,460
1506577243952,460
1506577243961,460
1506577243969,463
1506577243977,464
1506577243985,467
1506577243989,470
1506577243997,473
1506577244006,478
1506577244014,481
1506577244022,486
1506577244030,491
1506577244038,494
1506577244047,499
1506577244055,501
1506577244063,504
1506577244071,507
1506577244079,508
1506577244088,510
1506577244096,509
1506577244104,509
1506577244112,508
1506577244120,505
1506577244128,504
1506577244137,499
1506577244145,497
1506577244149,493
1506577244157,489
1506577244165,486
1506577244173,482
1506577244182,479
1506577244190,477
1506577244198,475
1506577244206,475
1506577244214,472
1506577244222,472
1506577244231,473
1506577244239,473
1506577244247,475
1506577244255,475
1506577244264,477
1506577244272,478
1506577244280,478
1506577244288,480
1506577244296,481
1506577244305,483
1506577244309,484
1506577244317,484
1506577244325,485
1506577244334,485
1506577244342,487
1506577244350,487
1506577244358,487
1506577244366,489
1506577244375,487
1506577244383,487
1506577244391,488
1506577244399,487
1506577244407,487
1506577244416,487
1506577244424,487
1506577244432,486
1506577244440,485
1506577244448,486
1506577244456,486
1506577244464,487
1506577244469,488
1506577244477,490
1506577244485,493
1506577244493,493
1506577244501,493
1506577244510,497
1506577244518,500
1506577244526,507
1506577244534,515
1506577244542,525
1506577244550,537
1506577244559,549
1506577244567,563
1506577244575,575
1506577244583,588
1506577244591,599
1506577244600,606
1506577244608,615
1506577244616,617
1506577244624,615
1506577244628,611
1506577244636,604
1506577244645,597
1506577244653,585
1506577244661,573
1506577244669,561
1506577244677,545
1506577244686,532
1506577244694,518
1506577244702,506
1506577244710,497
1506577244718,487
1506577244726,478
1506577244735,470
1506577244743,464
1506577244751,460
1506577244759,455
1506577244767,455
1506577244776,453
1506577244784,454
1506577244788,457
1506577244796,459
1506577244804,464
1506577244812,468
1506577244821,473
1506577244829,477
1506577244837,482
1506577244845,489
1506577244853,493
1506577244861,499
1506577244870,504
1506577244878,507
1506577244886,512
1506577244895,514
1506577244902,515
1506577244911,519
1506577244919,518
1506577244927,519
1506577244935,517
1506577244943,515
1506577244947,513
1506577244956,509
1506577244964,507
1506577244972,502
1506577244980,499
1506577244989,496
1506577244997,491
1506577245005,488
1506577245013,484
1506577245022,481
1506577245030,479
1506577245038,477
1506577245046,479
1506577245054,477
1506577245063,477
1506577245071,478
1506577245079,477
1506577245087,480
1506577245095,480
1506577245103,482
1506577245112,485
1506577245116,487
1506577245124,490
1506577245132,492
1506577245140,493
1506577245149,496
1506577245157,496
1506577245165,499
1506577245173,498
1506577245181,500
1506577245189,502
1506577245198,506
1506577245206,508
1506577245214,507
1506577245222,506
1506577245230,511
1506577245239,509
1506577245247,509
1506577245255,510
1506577245263,506
1506577245271,504
1506577245275,500
1506577245284,500
1506577245292,500
1506577245300,501
1506577245308,505
1506577245316,509
1506577245325,516
1506577245333,525
1506577245341,537
1506577245349,549
1506577245357,560
1506577245365,574
1506577245374,585
1506577245382,595
1506577245390,606
1506577245398,611
1506577245406,614
1506577245414,614
1506577245423,611
1506577245431,606
1506577245435,597
1506577245443,589
1506577245451,576
1506577245460,564
1506577245468,553
1506577245476,538
1506577245484,527
1506577245492,515
1506577245500,504
1506577245509,496
1506577245517,487
1506577245525,482
1506577245533,476
1506577245541,471
1506577245550,469
1506577245558,466
1506577245566,466
1506577245574,467
1506577245582,470
1506577245590,474
1506577245595,475
1506577245603,479
1506577245611,484
1506577245619,488
1506577245627,494
1506577245636,498
1506577245644,503
1506577245652,509
1506577245660,514
1506577245668,518
1506577245676,520
1506577245685,524
1506577245693,525
1506577245701,524
1506577245709,526
1506577245718,524
1506577245726,523
1506577245734,520
1506577245742,517
1506577245750,516
1506577245755,511
1506577245763,509
1506577245771,505
1506577245779,498
1506577245787,495
1506577245796,490
1506577245804,487
1506577245812,485
1506577245820,483
1506577245828,482
1506577245837,480
1506577245845,480
1506577245853,479
1506577245861,479
1506577245869,481
1506577245878,480
1506577245886,486
1506577245894,490
1506577245902,486
1506577245910,487
1506577245914,487
1506577245923,487
1506577245931,489
1506577245939,490
1506577245947,493
1506577245955,493
1506577245963,496
1506577245972,497
1506577245980,496
1506577245988,499
1506577245996,497
1506577246004,499
1506577246013,499
1506577246021,497
1506577246029,498
1506577246037,497
1506577246045,497
1506577246053,497
1506577246062,496
1506577246070,496
1506577246074,495
1506577246082,497
1506577246090,498
1506577246098,502
1506577246107,510
1506577246115,517
1506577246123,525
1506577246131,534
1506577246139,545
1506577246148,558
1506577246156,571
1506577246164,587
1506577246172,604
1506577246180,611
1506577246188,620
1506577246197,626
1506577246205,625
1506577246213,621
1506577246221,618
1506577246229,611
1506577246234,598
1506577246242,590
1506577246250,575
1506577246259,558
1506577246267,548
1506577246275,532
1506577246283,520
1506577246291,508
1506577246299,497
1506577246308,491
1506577246316,479
1506577246324,474
1506577246332,470
1506577246340,466
1506577246349,460
1506577246356,458
1506577246364,461
1506577246373,460
1506577246381,465
1506577246389,466
1506577246393,467
1506577246401,471
1506577246409,481
1506577246418,484
1506577246426,492
1506577246434,499
1506577246443,501
1506577246451,509
1506577246459,512
1506577246467,514
1506577246476,514
1506577246484,516
1506577246492,518
1506577246500,518
1506577246508,519
1506577246516,518
1506577246524,516
1506577246533,515
1506577246541,512
1506577246549,510
1506577246553,506
1506577246561,503
1506577246570,501
1506577246578,497
1506577246586,495
1506577246594,491
1506577246602,489
1506577246610,488
1506577246619,484
1506577246627,484
1506577246635,484
1506577246643,483
1506577246651,482
1506577246660,481
1506577246668,482
1506577246676,482
1506577246684,483
1506577246692,484
1506577246701,484
1506577246709,485
1506577246713,486
1506577246721,486
1506577246729,488
1506577246737,487
1506577246746,489
1506577246753,490
1506577246761,490
1506577246770,491
1506577246778,491
1506577246786,492
1506577246794,491
1506577246802,491
1506577246811,492
1506577246819,491
1506577246827,492
1506577246836,492
1506577246844,491
1506577246852,492
1506577246860,491
1506577246868,492
1506577246876,491
1506577246881,492
1506577246889,495
1506577246897,496
1506577246905,502
1506577246913,507
1506577246922,515
1506577246930,526
1506577246938,537
1506577246947,550
1506577246955,563
1506577246963,577
1506577246971,590
1506577246979,601
1506577246987,612
1506577246996,618
1506577247004,625
1506577247012,628
1506577247020,625
1506577247028,623
1506577247036,610
1506577247041,603
1506577247049,589
1506577247057,574
1506577247065,563
1506577247073,545
1506577247082,532
1506577247090,522
1506577247098,505
1506577247106,499
1506577247115,487
1506577247123,476
1506577247131,470
1506577247139,469
1506577247147,464
1506577247156,463
1506577247163,464
1506577247172,461
1506577247180,460
1506577247188,464
1506577247196,466
1506577247200,469
1506577247208,475
1506577247217,480
1506577247225,487
1506577247233,493
1506577247241,498
1506577247249,506
1506577247258,510
1506577247266,516
1506577247274,519
1506577247282,522
1506577247290,523
1506577247298,522
1506577247307,523
1506577247315,520
1506577247323,517
1506577247331,516
1506577247339,513
1506577247348,515
1506577247356,509
1506577247360,508
1506577247368,504
1506577247376,495
1506577247384,491
1506577247393,486
1506577247401,483
1506577247409,482
1506577247417,479
1506577247425,478
1506577247434,478
1506577247442,477
1506577247450,479
1506577247458,479
1506577247467,481
1506577247475,481
1506577247483,482
1506577247491,485
1506577247499,484
1506577247507,487
1506577247515,488
1506577247519,488
1506577247528,491
1506577247536,491
1506577247544,493
1506577247552,494
1506577247560,494
1506577247569,496
1506577247577,495
1506577247585,496
1506577247593,495
1506577247601,495
1506577247609,497
1506577247618,500
1506577247626,501
1506577247634,498
1506577247642,496
1506577247650,502
1506577247659,498
1506577247667,495
1506577247675,492
1506577247679,491
1506577247687,493
1506577247695,494
1506577247703,499
1506577247712,505
1506577247720,512
1506577247728,525
1506577247736,535
1506577247744,550
1506577247753,564
1506577247761,579
1506577247770,593
1506577247778,603
1506577247785,614
1506577247794,621
1506577247802,623
1506577247810,625
1506577247818,620
1506577247826,614
1506577247834,605
1506577247838,593
1506577247847,580
1506577247855,566
1506577247863,552
1506577247872,538
1506577247880,523
1506577247889,512
1506577247897,500
1506577247905,492
1506577247913,483
1506577247921,476
1506577247930,473
1506577247938,469
1506577247946,468
1506577247954,467
1506577247962,468
1506577247970,469
1506577247979,470
1506577247987,474
1506577247995,479
1506577247999,483
1506577248007,489
1506577248016,494
1506577248024,500
1506577248032,506
1506577248040,512
1506577248048,518
1506577248056,523
1506577248065,530
1506577248073,533
1506577248081,535
1506577248089,539
1506577248097,539
1506577248106,540
1506577248114,539
1506577248122,537
1506577248130,536
1506577248138,532
1506577248146,529
1506577248155,525
1506577248159,520
1506577248167,517
1506577248175,511
1506577248183,505
1506577248191,502
1506577248200,497
1506577248208,494
1506577248216,489
1506577248224,487
1506577248232,484
1506577248241,481
1506577248249,481
1506577248257,480
1506577248265,480
1506577248273,481
1506577248281,479
1506577248290,481
1506577248297,481
1506577248306,481
1506577248314,483
1506577248322,484
1506577248326,486
1506577248334,489
1506577248342,492
1506577248351,494
1506577248359,496
1506577248367,499
1506577248375,499
1506577248384,501
1506577248392,502
1506577248400,502
1506577248408,503
1506577248417,503
1506577248425,503
1506577248433,503
1506577248441,502
1506577248449,504
1506577248457,503
1506577248466,502
1506577248474,503
1506577248482,503
1506577248487,506
1506577248495,509
1506577248503,514
1506577248511,522
1506577248519,531
1506577248527,543
1506577248536,554
1506577248544,570
1506577248552,584
1506577248560,595
1506577248568,608
1506577248577,617
1506577248585,623
1506577248593,627
1506577248601,628
1506577248609,627
1506577248617,621
1506577248625,613
1506577248634,604
1506577248642,589
1506577248646,576
1506577248654,559
1506577248662,545
1506577248671,532
1506577248679,518
1506577248687,506
1506577248695,495
1506577248703,487
1506577248711,485
1506577248720,477
1506577248728,471
1506577248736,464
1506577248744,462
1506577248752,461
1506577248761,460
1506577248769,463
1506577248777,466
1506577248785,470
1506577248793,476
1506577248802,480
1506577248806,487
1506577248814,493
1506577248822,499
1506577248831,507
1506577248839,512
1506577248847,520
1506577248855,524
1506577248863,528
1506577248872,532
1506577248880,534
1506577248888,535
1506577248896,535
1506577248904,533
1506577248913,532
1506577248921,528
1506577248929,525
1506577248937,521
1506577248945,516
1506577248953,513
1506577248962,507
1506577248966,504
1506577248974,499
1506577248982,495
1506577248990,493
1506577248998,489
1506577249007,488
1506577249015,486
1506577249023,486
1506577249031,487
1506577249040,488
1506577249048,491
1506577249056,492
1506577249064,494
1506577249072,498
1506577249080,499
1506577249089,503
1506577249097,505
1506577249105,507
1506577249113,509
1506577249121,508
1506577249125,511
1506577249134,511
1506577249142,512
1506577249150,513
1506577249158,511
1506577249166,512
1506577249175,511
1506577249183,510
1506577249191,511
1506577249199,508
1506577249207,507
1506577249216,506
1506577249224,503
1506577249232,502
1506577249240,500
1506577249248,500
1506577249256,500
1506577249265,500
1506577249273,504
1506577249281,508
1506577249285,516
1506577249293,525
1506577249301,536
1506577249310,549
1506577249318,562
1506577249326,577
1506577249334,590
1506577249342,602
1506577249350,613
1506577249359,620
1506577249367,627
1506577249375,629
1506577249383,627
1506577249391,623
1506577249400,615
1506577249408,606
1506577249416,594
1506577249424,580
1506577249432,567
1506577249440,552
1506577249445,539
1506577249453,526
1506577249461,513
1506577249469,503
1506577249478,492
1506577249485,485
1506577249494,478
1506577249502,472
1506577249510,468
1506577249518,464
1506577249526,464
1506577249535,462
1506577249543,463
1506577249551,468
1506577249560,470
1506577249568,475
1506577249576,480
1506577249584,486
1506577249592,493
1506577249601,500
1506577249605,506
1506577249613,511
1506577249621,516
1506577249629,522
1506577249637,525
1506577249646,528
1506577249654,531
1506577249662,532
1506577249670,537
1506577249678,538
1506577249687,538
1506577249695,536
1506577249703,530
1506577249711,525
1506577249719,519
1506577249727,516
1506577249736,512
1506577249744,508
1506577249752,507
1506577249760,503
1506577249764,502
1506577249773,501
1506577249781,499
1506577249789,498
1506577249797,495
1506577249805,494
1506577249814,492
1506577249822,489
1506577249830,488
1506577249838,485
1506577249846,485
1506577249855,483
1506577249863,481
1506577249871,483
1506577249879,481
1506577249887,482
1506577249895,483
1506577249903,483
1506577249911,485
1506577249919,484
1506577249923,486
1506577249932,487
1506577249940,488
1506577249948,489
1506577249956,488
1506577249964,490
1506577249973,490
1506577249981,489
1506577249989,492
1506577249998,491
1506577250005,494
1506577250013,494
1506577250022,495
1506577250030,498
1506577250038,500
1506577250046,506
1506577250054,511
1506577250063,517
1506577250071,527
1506577250079,537
1506577250087,550
1506577250092,563
1506577250100,575
1506577250108,590
1506577250116,600
1506577250125,611
1506577250133,618
1506577250141,622
1506577250150,624
1506577250158,620
1506577250166,615
1506577250174,607
1506577250182,596
1506577250191,585
1506577250199,570
1506577250207,555
1506577250215,542
1506577250223,526
1506577250231,513
1506577250239,501
1506577250248,492
1506577250252,483
1506577250260,475
1506577250268,471
1506577250276,464
1506577250285,462
1506577250293,460
1506577250301,458
1506577250309,459
1506577250317,460
1506577250326,462
1506577250334,465
1506577250342,469
1506577250350,475
1506577250358,479
1506577250367,486
1506577250375,492
1506577250383,496
1506577250391,502
1506577250399,506
1506577250407,511
1506577250411,515
1506577250420,517
1506577250428,522
1506577250436,522
1506577250444,523
1506577250452,523
1506577250461,521
1506577250469,520
1506577250477,518
1506577250485,515
1506577250493,513
1506577250501,508
1506577250510,506
1506577250518,503
1506577250526,500
1506577250535,498
1506577250542,494
1506577250551,493
1506577250559,489
1506577250567,488
1506577250571,487
1506577250579,485
1506577250587,484
1506577250596,482
1506577250604,482
1506577250612,482
1506577250620,482
1506577250628,482
1506577250637,482
1506577250645,483
1506577250653,484
1506577250661,484
1506577250669,486
1506577250677,487
1506577250686,488
1506577250694,490
1506577250702,490
1506577250710,492
1506577250718,492
1506577250727,493
1506577250731,494
1506577250739,493
1506577250747,494
1506577250755,493
1506577250763,494
1506577250772,494
1506577250780,493
1506577250788,494
1506577250796,494
1506577250805,495
1506577250813,498
1506577250821,500
1506577250829,506
1506577250838,513
1506577250846,523
1506577250854,534
1506577250862,545
1506577250870,559
1506577250879,571
1506577250887,584
1506577250891,598
1506577250899,606
1506577250907,614
1506577250915,616
1506577250924,617
1506577250932,616
1506577250940,608
1506577250948,602
1506577250956,591
1506577250965,578
1506577250973,565
1506577250981,550
1506577250989,536
1506577250997,521
1506577251005,508
1506577251014,497
1506577251022,485
1506577251030,478
1506577251038,469
1506577251046,464
1506577251050,460
1506577251059,455
1506577251067,455
1506577251075,455
1506577251083,456
1506577251091,459
1506577251099,461
1506577251108,466
1506577251116,470
1506577251124,475
1506577251132,482
1506577251141,487
1506577251149,493
1506577251157,498
1506577251165,504
1506577251173,510
1506577251181,513
1506577251190,519
1506577251198,522
1506577251206,524
1506577251210,527
1506577251218,527
1506577251226,528
1506577251235,527
1506577251243,526
1506577251251,525
1506577251259,519
1506577251267,518
1506577251276,513
1506577251284,509
1506577251292,505
1506577251300,501
1506577251308,498
1506577251316,495
1506577251325,491
1506577251333,488
1506577251341,486
1506577251349,485
1506577251357,483
1506577251365,481
1506577251370,482
1506577251378,481
1506577251386,483
1506577251394,483
1506577251402,482
1506577251411,484
1506577251419,485
1506577251427,486
1506577251435,487
1506577251443,489
1506577251452,492
1506577251460,492
1506577251468,494
1506577251476,494
1506577251484,494
1506577251493,495
1506577251501,495
1506577251509,496
1506577251517,497
