time,value
1506578856565,423
1506578856573,430
1506578856581,437
1506578856590,453
1506578856598,479
1506578856606,508
1506578856614,552
1506578856622,601
1506578856631,653
1506578856639,709
1506578856647,756
1506578856655,803
1506578856663,836
1506578856671,858
1506578856680,871
1506578856688,865
1506578856696,854
1506578856700,829
1506578856708,795
1506578856716,759
1506578856725,715
1506578856733,673
1506578856741,629
1506578856749,586
1506578856757,551
1506578856766,515
1506578856774,488
1506578856782,462
1506578856790,441
1506578856798,428
1506578856806,413
1506578856815,407
1506578856823,401
1506578856831,399
1506578856839,402
1506578856848,402
1506578856855,412
1506578856860,418
1506578856868,427
1506578856876,440
1506578856884,448
1506578856893,460
1506578856901,469
1506578856909,477
1506578856917,484
1506578856925,485
1506578856933,489
1506578856942,488
1506578856950,484
1506578856958,483
1506578856966,475
1506578856974,469
1506578856983,462
1506578856991,451
1506578856999,446
1506578857007,433
1506578857015,428
1506578857019,420
1506578857028,412
1506578857036,410
1506578857044,402
1506578857052,400
1506578857060,397
1506578857069,393
1506578857077,395
1506578857085,393
1506578857093,395
1506578857101,396
1506578857109,396
1506578857118,399
1506578857126,399
1506578857134,404
1506578857142,407
1506578857150,408
1506578857159,413
1506578857167,412
1506578857175,415
1506578857179,417
1506578857187,417
1506578857195,419
1506578857204,417
1506578857212,419
1506578857220,418
1506578857228,416
1506578857236,420
1506578857244,420
1506578857253,430
1506578857261,444
1506578857270,463
1506578857277,497
1506578857285,532
1506578857293,580
1506578857302,631
1506578857310,681
1506578857318,732
1506578857326,773
1506578857334,810
1506578857339,833
1506578857347,842
1506578857355,846
1506578857364,830
1506578857372,808
1506578857379,777
1506578857388,738
1506578857396,699
1506578857404,653
1506578857412,611
1506578857420,570
1506578857429,529
1506578857437,498
1506578857445,465
1506578857453,441
1506578857462,422
1506578857470,403
1506578857478,395
1506578857486,385
1506578857495,383
1506578857499,385
1506578857507,387
1506578857515,398
1506578857523,404
1506578857531,417
1506578857540,431
1506578857548,443
1506578857556,459
1506578857564,467
1506578857572,478
1506578857581,487
1506578857589,491
1506578857597,497
1506578857605,495
1506578857613,496
1506578857621,493
1506578857630,485
1506578857638,483
1506578857646,472
1506578857654,466
1506578857659,460
1506578857667,448
1506578857675,441
1506578857683,430
1506578857691,421
1506578857699,415
1506578857708,408
1506578857716,405
1506578857724,399
1506578857732,398
1506578857740,397
1506578857748,393
1506578857757,398
1506578857765,396
1506578857773,398
1506578857781,400
1506578857789,400
1506578857797,406
1506578857806,406
1506578857814,411
1506578857822,413
1506578857826,414
1506578857834,419
1506578857843,419
1506578857851,423
1506578857859,425
1506578857867,424
1506578857875,427
1506578857883,425
1506578857892,427
1506578857900,427
1506578857908,425
1506578857917,429
1506578857925,431
1506578857933,442
1506578857941,457
1506578857950,478
1506578857958,513
1506578857966,551
1506578857974,598
1506578857982,649
1506578857986,696
1506578857994,745
1506578858003,783
1506578858011,813
1506578858019,832
1506578858027,836
1506578858036,835
1506578858044,815
1506578858052,790
1506578858060,757
1506578858068,715
1506578858076,675
1506578858084,628
1506578858093,585
1506578858101,544
1506578858109,504
1506578858117,472
1506578858125,440
1506578858134,418
1506578858142,400
1506578858146,384
1506578858154,379
1506578858162,373
1506578858170,375
1506578858179,381
1506578858187,387
1506578858195,402
1506578858203,414
1506578858211,430
1506578858220,447
1506578858228,460
1506578858236,477
1506578858244,486
1506578858252,499
1506578858260,507
1506578858269,510
1506578858277,515
1506578858285,512
1506578858293,510
1506578858301,505
1506578858305,496
1506578858314,491
1506578858322,479
1506578858330,470
1506578858338,461
1506578858346,448
1506578858355,443
1506578858363,432
1506578858371,424
1506578858379,419
1506578858388,412
1506578858396,409
1506578858404,405
1506578858412,404
1506578858420,405
1506578858428,402
1506578858436,406
1506578858445,406
1506578858453,408
1506578858461,413
1506578858465,413
1506578858473,419
1506578858481,419
1506578858490,422
1506578858498,426
1506578858506,425
1506578858514,429
1506578858522,427
1506578858531,429
1506578858539,431
1506578858547,427
1506578858555,430
1506578858563,427
1506578858572,428
1506578858580,432
1506578858588,435
1506578858597,448
1506578858605,463
1506578858613,489
1506578858621,523
1506578858625,561
1506578858633,611
1506578858642,659
1506578858650,709
1506578858658,755
1506578858666,789
1506578858674,820
1506578858682,835
1506578858691,840
1506578858699,834
1506578858707,815
1506578858715,791
1506578858723,754
1506578858732,717
1506578858740,677
1506578858748,632
1506578858756,593
1506578858764,552
1506578858773,516
1506578858781,486
1506578858785,455
1506578858793,436
1506578858801,416
1506578858809,404
1506578858818,396
1506578858826,390
1506578858834,393
1506578858842,394
1506578858850,400
1506578858859,411
1506578858867,419
1506578858875,434
1506578858883,445
1506578858891,458
1506578858899,472
1506578858908,479
1506578858916,491
1506578858924,496
1506578858932,501
1506578858940,505
1506578858944,501
1506578858953,502
1506578858961,497
1506578858969,490
1506578858977,484
1506578858985,473
1506578858994,466
1506578859002,456
1506578859010,447
1506578859018,440
1506578859026,430
1506578859035,425
1506578859043,416
1506578859051,413
1506578859059,411
1506578859068,404
1506578859075,405
1506578859084,402
1506578859092,402
1506578859100,404
1506578859104,402
1506578859112,406
1506578859120,407
1506578859129,408
1506578859137,413
1506578859145,412
1506578859153,419
1506578859161,419
1506578859170,422
1506578859178,427
1506578859186,426
1506578859194,431
1506578859202,430
1506578859211,431
1506578859219,434
1506578859227,432
1506578859235,435
1506578859243,432
1506578859252,431
1506578859260,432
1506578859268,429
1506578859272,433
1506578859280,434
1506578859289,442
1506578859296,458
1506578859305,476
1506578859313,509
1506578859322,546
1506578859330,592
1506578859338,644
1506578859346,692
1506578859354,746
1506578859362,789
1506578859371,823
1506578859379,851
1506578859387,860
1506578859395,863
1506578859403,851
1506578859412,829
1506578859420,802
1506578859428,762
1506578859432,724
1506578859440,680
1506578859449,636
1506578859457,596
1506578859465,554
1506578859473,522
1506578859481,491
1506578859489,465
1506578859497,447
1506578859506,428
1506578859514,419
1506578859522,411
1506578859530,407
1506578859538,408
1506578859547,408
1506578859555,416
1506578859563,423
1506578859571,431
1506578859579,446
1506578859587,452
1506578859592,466
1506578859600,475
1506578859608,484
1506578859616,494
1506578859624,497
1506578859632,504
1506578859641,504
1506578859649,503
1506578859657,502
1506578859665,494
1506578859673,492
1506578859682,484
1506578859690,475
1506578859698,469
1506578859706,456
1506578859714,451
1506578859722,442
1506578859731,433
1506578859739,428
1506578859747,421
1506578859751,416
1506578859759,409
1506578859768,404
1506578859776,405
1506578859783,400
1506578859792,401
1506578859800,402
1506578859808,402
1506578859816,405
1506578859824,403
1506578859832,408
1506578859842,408
1506578859850,409
1506578859858,414
1506578859866,413
1506578859874,418
1506578859883,420
1506578859891,421
1506578859899,425
1506578859907,425
1506578859911,429
1506578859919,430
1506578859928,430
1506578859936,433
1506578859944,430
1506578859952,433
1506578859960,431
1506578859969,429
1506578859977,431
1506578859985,426
1506578859993,429
1506578860001,431
1506578860009,436
1506578860018,450
1506578860026,467
1506578860034,495
1506578860042,528
1506578860050,569
1506578860058,619
1506578860067,666
1506578860071,718
1506578860079,763
1506578860087,799
1506578860095,829
1506578860104,844
1506578860112,850
1506578860120,844
1506578860128,826
1506578860136,802
1506578860144,765
1506578860153,728
1506578860161,687
1506578860169,642
1506578860177,604
1506578860185,562
1506578860194,528
1506578860202,496
1506578860210,467
1506578860218,447
1506578860226,427
1506578860230,417
1506578860239,407
1506578860247,401
1506578860255,403
1506578860263,401
1506578860271,409
1506578860280,415
1506578860288,423
1506578860296,437
1506578860304,447
1506578860312,461
1506578860320,472
1506578860329,482
1506578860337,493
1506578860345,498
1506578860353,505
1506578860361,508
1506578860370,508
1506578860378,509
1506578860386,504
1506578860390,501
1506578860398,498
1506578860406,491
1506578860415,482
1506578860423,470
1506578860431,460
1506578860439,450
1506578860448,441
1506578860456,436
1506578860464,425
1506578860472,422
1506578860481,417
1506578860489,411
1506578860497,410
1506578860505,405
1506578860513,405
1506578860521,405
1506578860529,403
1506578860537,406
1506578860545,405
1506578860550,409
1506578860558,411
1506578860566,412
1506578860574,416
1506578860582,416
1506578860591,423
1506578860599,425
1506578860608,426
1506578860616,432
1506578860623,430
1506578860631,435
1506578860640,437
1506578860648,436
1506578860656,440
1506578860664,438
1506578860672,440
1506578860681,439
1506578860689,437
1506578860697,439
1506578860706,435
1506578860710,436
1506578860718,435
1506578860726,434
1506578860734,441
1506578860743,448
1506578860751,464
1506578860759,487
1506578860767,517
1506578860775,559
1506578860783,602
1506578860792,653
1506578860800,703
1506578860808,748
1506578860816,792
1506578860824,821
1506578860833,843
1506578860841,853
1506578860849,848
1506578860857,837
1506578860865,811
1506578860873,782
1506578860878,746
1506578860886,703
1506578860894,664
1506578860902,618
1506578860911,579
1506578860919,542
1506578860927,506
1506578860935,481
1506578860943,453
1506578860951,436
1506578860959,421
1506578860968,410
1506578860976,408
1506578860984,403
1506578860992,409
1506578861000,415
1506578861009,422
1506578861017,436
1506578861025,446
1506578861033,460
1506578861037,475
1506578861045,486
1506578861054,500
1506578861062,508
1506578861070,515
1506578861078,521
1506578861086,523
1506578861094,526
1506578861103,521
1506578861111,518
1506578861119,512
1506578861127,501
1506578861135,495
1506578861144,482
1506578861152,472
1506578861160,463
1506578861169,451
1506578861177,445
1506578861185,435
1506578861193,429
1506578861197,424
1506578861206,416
1506578861214,416
1506578861222,412
1506578861230,412
1506578861238,413
1506578861246,411
1506578861255,414
1506578861263,415
1506578861271,418
1506578861279,420
1506578861288,420
1506578861296,426
1506578861304,424
1506578861312,429
1506578861320,432
1506578861328,431
1506578861336,436
1506578861345,436
1506578861353,438
1506578861357,440
1506578861365,438
1506578861373,442
1506578861381,439
1506578861390,441
1506578861398,441
1506578861406,438
1506578861414,440
1506578861422,437
1506578861431,438
1506578861439,444
1506578861447,449
1506578861455,466
1506578861463,485
1506578861472,517
1506578861480,555
1506578861488,597
1506578861496,649
1506578861504,697
1506578861512,744
1506578861517,786
1506578861525,817
1506578861533,843
1506578861541,852
1506578861549,852
1506578861558,841
1506578861566,817
1506578861574,791
1506578861582,753
1506578861590,715
1506578861598,675
1506578861607,631
1506578861615,595
1506578861623,556
1506578861631,525
1506578861639,500
1506578861648,473
1506578861656,456
1506578861664,441
1506578861672,431
1506578861676,426
1506578861684,421
1506578861693,425
1506578861701,425
1506578861709,432
1506578861717,441
1506578861725,448
1506578861733,462
1506578861742,471
1506578861750,485
1506578861758,496
1506578861766,502
1506578861774,511
1506578861783,515
1506578861791,518
1506578861799,521
1506578861808,517
1506578861815,518
1506578861824,510
1506578861832,504
1506578861836,498
1506578861844,487
1506578861852,481
1506578861860,469
1506578861869,460
1506578861877,453
1506578861885,443
1506578861894,439
1506578861901,430
1506578861910,425
1506578861918,423
1506578861926,416
1506578861934,417
1506578861942,414
1506578861950,414
1506578861959,415
1506578861967,413
1506578861975,416
1506578861983,416
1506578861992,417
1506578861996,420
1506578862004,418
1506578862012,424
1506578862020,424
1506578862029,426
1506578862036,429
1506578862045,428
1506578862053,433
1506578862061,434
1506578862069,435
1506578862077,438
1506578862086,436
1506578862094,439
1506578862102,438
1506578862110,438
1506578862118,440
1506578862126,436
1506578862135,438
1506578862143,436
1506578862151,435
1506578862155,436
1506578862163,432
1506578862171,434
1506578862180,432
1506578862189,432
1506578862196,438
1506578862204,444
1506578862212,462
1506578862221,487
1506578862229,518
1506578862237,561
1506578862245,605
1506578862253,660
1506578862261,712
1506578862270,762
1506578862278,808
1506578862287,840
1506578862295,868
1506578862302,879
1506578862310,879
1506578862319,871
1506578862323,847
1506578862331,820
1506578862339,785
1506578862348,745
1506578862356,707
1506578862364,663
1506578862372,627
1506578862380,590
1506578862389,557
1506578862397,531
1506578862405,503
1506578862413,486
1506578862421,469
1506578862429,454
1506578862437,448
1506578862446,440
1506578862454,439
1506578862462,437
1506578862470,440
1506578862478,446
1506578862482,450
1506578862491,461
1506578862499,468
1506578862508,476
1506578862516,488
1506578862524,492
1506578862533,502
1506578862541,505
1506578862549,508
1506578862557,512
1506578862565,509
1506578862573,509
1506578862582,504
1506578862590,499
1506578862598,494
1506578862606,483
1506578862614,478
1506578862622,469
1506578862630,459
1506578862638,454
1506578862643,443
1506578862651,439
1506578862659,432
1506578862667,427
1506578862675,426
1506578862683,419
1506578862692,420
1506578862700,417
1506578862709,416
1506578862717,419
1506578862725,416
1506578862733,420
1506578862741,421
1506578862749,421
1506578862758,425
1506578862766,424
1506578862774,428
1506578862782,428
1506578862790,430
1506578862798,434
1506578862803,433
1506578862811,437
1506578862819,435
1506578862828,436
1506578862835,440
1506578862844,437
1506578862852,440
1506578862860,439
1506578862868,439
1506578862876,441
1506578862884,438
1506578862893,440
1506578862901,438
1506578862909,436
1506578862917,437
1506578862925,432
1506578862934,434
1506578862942,432
1506578862950,429
1506578862958,430
1506578862962,426
1506578862970,431
1506578862979,433
1506578862987,443
1506578862995,460
1506578863004,480
1506578863012,514
1506578863020,554
1506578863028,600
1506578863036,654
1506578863044,703
1506578863053,754
1506578863061,796
1506578863069,829
1506578863077,853
1506578863085,860
1506578863094,862
1506578863102,849
1506578863109,827
1506578863118,800
1506578863122,761
1506578863130,725
1506578863138,685
1506578863146,644
1506578863154,609
1506578863163,572
1506578863171,545
1506578863179,517
1506578863188,495
1506578863196,480
1506578863204,462
1506578863212,452
1506578863220,446
1506578863229,439
1506578863237,442
1506578863245,440
1506578863253,446
1506578863261,451
1506578863270,458
1506578863278,468
1506578863282,474
1506578863290,486
1506578863298,493
1506578863306,499
1506578863315,510
1506578863323,511
1506578863331,516
1506578863339,517
1506578863348,515
1506578863356,515
1506578863364,508
1506578863372,504
1506578863380,497
1506578863388,488
1506578863396,482
1506578863405,470
1506578863413,463
1506578863421,454
1506578863429,445
1506578863437,440
1506578863442,431
1506578863450,428
1506578863458,424
1506578863466,420
1506578863474,421
1506578863482,417
1506578863491,419
1506578863499,419
1506578863507,417
1506578863515,422
1506578863523,420
1506578863532,424
1506578863540,427
1506578863548,427
1506578863556,432
1506578863564,430
1506578863572,433
1506578863581,434
1506578863589,434
1506578863597,439
1506578863601,437
1506578863609,441
1506578863617,441
1506578863626,441
1506578863634,446
1506578863642,443
1506578863650,446
1506578863658,446
1506578863667,444
1506578863675,447
1506578863683,444
1506578863692,445
1506578863700,444
1506578863708,441
1506578863716,443
1506578863724,439
1506578863733,439
1506578863741,438
1506578863749,433
1506578863757,434
1506578863761,429
1506578863770,428
1506578863778,429
1506578863786,429
1506578863794,441
1506578863802,453
1506578863811,477
1506578863819,509
1506578863827,547
1506578863835,599
1506578863843,649
1506578863851,704
1506578863859,755
1506578863868,798
1506578863876,837
1506578863884,860
1506578863892,877
1506578863900,878
1506578863909,865
1506578863917,848
1506578863925,816
1506578863929,784
1506578863937,746
1506578863946,703
1506578863954,665
1506578863962,624
1506578863970,591
1506578863978,561
1506578863986,533
1506578863995,514
1506578864003,493
1506578864011,480
1506578864019,468
1506578864028,458
1506578864036,456
1506578864044,451
1506578864052,452
1506578864060,454
1506578864068,456
1506578864076,464
1506578864084,468
1506578864089,478
1506578864097,486
1506578864105,492
1506578864113,503
1506578864121,506
1506578864129,512
1506578864137,515
1506578864145,513
1506578864154,515
1506578864162,510
1506578864170,508
1506578864178,503
1506578864186,493
1506578864194,489
1506578864203,477
1506578864211,470
1506578864220,463
1506578864228,453
1506578864236,448
1506578864244,438
1506578864248,434
1506578864256,430
1506578864265,423
1506578864273,423
1506578864281,419
1506578864289,419
1506578864297,420
1506578864306,418
1506578864314,421
1506578864322,419
1506578864330,422
1506578864338,425
1506578864347,424
1506578864355,429
1506578864363,427
1506578864371,430
1506578864379,431
1506578864388,429
1506578864396,435
1506578864404,433
1506578864409,436
1506578864417,437
1506578864424,436
1506578864433,440
1506578864441,437
1506578864449,440
1506578864457,441
1506578864465,438
1506578864473,443
1506578864482,439
1506578864490,439
1506578864498,440
1506578864506,436
1506578864515,437
1506578864523,432
1506578864531,432
1506578864539,431
1506578864548,427
1506578864556,430
1506578864564,425
1506578864568,427
1506578864576,432
1506578864584,437
1506578864592,454
1506578864601,473
1506578864609,505
1506578864617,544
1506578864625,588
1506578864633,642
1506578864641,693
1506578864649,745
1506578864657,792
1506578864666,825
1506578864674,854
1506578864682,866
1506578864690,869
1506578864698,863
1506578864707,843
1506578864715,819
1506578864723,786
1506578864727,750
1506578864735,713
1506578864743,675
1506578864752,642
1506578864760,605
1506578864768,576
1506578864776,553
1506578864784,528
1506578864792,514
1506578864801,496
1506578864809,486
1506578864818,478
1506578864826,468
1506578864834,467
1506578864843,462
1506578864851,462
1506578864859,463
1506578864867,462
1506578864875,469
1506578864883,471
1506578864888,477
1506578864896,485
1506578864904,488
1506578864912,497
1506578864920,499
1506578864929,503
1506578864937,507
1506578864945,504
1506578864953,505
1506578864961,500
1506578864969,497
1506578864978,493
1506578864986,483
1506578864994,479
1506578865002,470
1506578865010,462
1506578865019,455
1506578865027,446
1506578865035,441
1506578865043,434
1506578865047,429
1506578865055,426
1506578865064,419
1506578865072,420
1506578865080,416
1506578865088,415
1506578865096,417
1506578865104,413
1506578865113,416
1506578865121,416
1506578865129,417
1506578865137,419
1506578865145,418
1506578865154,423
1506578865162,422
1506578865170,424
1506578865178,428
1506578865186,427
1506578865195,431
1506578865203,431
1506578865207,432
1506578865215,434
1506578865223,433
1506578865231,436
1506578865240,434
1506578865248,434
1506578865256,436
1506578865264,432
1506578865272,435
1506578865280,434
1506578865289,433
1506578865297,434
1506578865305,431
1506578865313,433
1506578865322,432
1506578865330,432
1506578865338,432
1506578865346,428
1506578865354,430
1506578865362,426
1506578865366,424
1506578865375,425
1506578865383,421
1506578865391,425
1506578865399,424
1506578865408,429
1506578865416,440
1506578865424,453
1506578865432,481
1506578865440,511
1506578865448,553
1506578865457,603
1506578865465,653
1506578865473,709
1506578865481,758
1506578865489,802
1506578865497,840
1506578865506,862
1506578865514,877
1506578865522,876
1506578865527,867
1506578865535,849
1506578865543,818
1506578865551,788
1506578865559,750
1506578865568,711
1506578865576,676
1506578865584,636
1506578865592,606
1506578865600,578
1506578865609,553
1506578865617,534
1506578865625,515
1506578865633,504
1506578865641,491
1506578865650,481
1506578865657,476
1506578865666,466
1506578865674,467
1506578865682,464
1506578865690,463
1506578865694,466
1506578865703,465
1506578865711,472
1506578865719,476
1506578865727,481
1506578865735,489
1506578865744,491
1506578865752,498
1506578865760,500
1506578865768,500
1506578865776,505
1506578865784,500
1506578865792,500
1506578865800,494
1506578865808,489
1506578865817,484
1506578865825,475
1506578865833,470
1506578865841,463
1506578865849,454
1506578865853,449
1506578865862,439
1506578865870,435
1506578865878,429
1506578865886,424
1506578865894,423
1506578865903,416
1506578865911,417
1506578865919,414
1506578865927,413
1506578865935,414
1506578865943,412
1506578865952,416
1506578865960,414
1506578865969,415
1506578865977,420
1506578865984,418
1506578865993,421
1506578866001,422
1506578866009,422
1506578866013,426
1506578866021,425
1506578866029,429
1506578866038,429
1506578866046,429
1506578866054,432
1506578866062,428
1506578866071,432
1506578866079,432
1506578866088,432
1506578866096,435
1506578866104,432
1506578866112,434
1506578866120,432
1506578866129,431
1506578866137,433
1506578866145,430
1506578866153,432
1506578866161,430
1506578866169,428
1506578866174,430
1506578866182,426
1506578866190,427
1506578866198,425
1506578866206,421
1506578866215,423
1506578866223,419
1506578866231,420
1506578866239,418
1506578866247,418
1506578866255,422
1506578866264,423
1506578866272,438
1506578866280,455
1506578866288,480
1506578866296,517
1506578866305,558
1506578866313,610
1506578866321,663
1506578866329,715
1506578866333,768
1506578866341,808
1506578866350,845
1506578866358,866
1506578866366,874
1506578866374,876
1506578866382,860
1506578866391,839
1506578866399,809
1506578866407,772
1506578866415,735
1506578866423,693
1506578866432,656
1506578866440,618
1506578866448,583
1506578866456,556
1506578866464,529
1506578866472,511
1506578866481,493
1506578866489,479
1506578866493,473
1506578866501,462
1506578866509,459
1506578866517,457
1506578866526,455
1506578866534,459
1506578866542,460
1506578866550,467
1506578866558,472
1506578866567,477
1506578866575,487
1506578866583,491
1506578866591,499
1506578866599,505
1506578866608,507
1506578866616,513
1506578866624,512
1506578866632,512
1506578866640,510
1506578866648,504
1506578866652,501
1506578866661,492
1506578866669,487
1506578866677,480
1506578866685,470
1506578866694,465
1506578866702,452
1506578866710,448
1506578866718,440
1506578866726,433
1506578866734,430
1506578866743,423
1506578866751,422
1506578866759,420
1506578866767,417
1506578866775,420
1506578866783,417
1506578866792,420
1506578866800,421
1506578866809,421
1506578866813,425
1506578866821,425
1506578866829,429
1506578866837,431
1506578866845,432
1506578866854,435
1506578866862,435
1506578866870,439
1506578866878,441
1506578866886,439
1506578866894,444
1506578866903,441
1506578866911,444
1506578866919,446
1506578866927,445
1506578866935,448
1506578866944,445
1506578866952,448
1506578866960,448
1506578866968,446
1506578866972,448
1506578866980,444
1506578866989,445
1506578866997,445
1506578867005,441
1506578867013,442
1506578867021,437
1506578867030,436
1506578867038,434
1506578867046,430
1506578867054,431
1506578867062,429
1506578867071,437
1506578867079,448
1506578867087,464
1506578867095,494
1506578867103,527
1506578867111,573
1506578867120,625
1506578867128,675
1506578867136,730
1506578867140,775
1506578867148,818
1506578867156,849
1506578867165,866
1506578867173,876
1506578867181,869
1506578867189,856
1506578867197,832
1506578867206,800
1506578867214,768
1506578867222,727
1506578867230,691
1506578867238,654
1506578867247,617
1506578867255,589
1506578867263,560
1506578867271,540
1506578867279,523
1506578867287,505
1506578867295,497
1506578867300,484
1506578867308,477
1506578867316,472
1506578867324,466
1506578867332,467
1506578867341,464
1506578867349,466
1506578867357,469
1506578867365,471
1506578867373,478
1506578867382,480
1506578867390,487
1506578867398,493
1506578867406,495
1506578867414,502
1506578867422,502
1506578867431,505
1506578867439,506
1506578867447,503
1506578867455,503
1506578867459,495
1506578867468,490
1506578867476,484
1506578867484,474
1506578867493,469
1506578867501,458
1506578867509,452
1506578867517,446
1506578867525,436
1506578867533,433
1506578867542,424
1506578867550,422
1506578867558,418
1506578867566,414
1506578867574,416
1506578867583,412
1506578867591,414
1506578867599,415
1506578867607,413
1506578867615,418
1506578867619,416
1506578867628,418
1506578867636,421
1506578867644,421
1506578867652,426
1506578867660,425
1506578867669,429
1506578867677,431
1506578867685,429
1506578867693,434
1506578867701,432
1506578867710,433
1506578867718,436
1506578867726,433
1506578867734,436
1506578867742,434
1506578867750,435
1506578867759,435
1506578867767,433
1506578867775,436
1506578867779,433
1506578867787,434
1506578867795,434
1506578867803,430
1506578867812,432
1506578867820,429
1506578867828,428
1506578867836,427
1506578867844,423
1506578867853,425
1506578867861,422
1506578867869,427
1506578867877,436
1506578867885,448
1506578867894,475
1506578867902,503
1506578867910,545
1506578867918,595
1506578867926,645
1506578867934,703
1506578867939,753
1506578867947,801
1506578867955,840
1506578867963,865
1506578867971,883
1506578867979,884
1506578867988,876
1506578867996,859
1506578868004,830
1506578868012,801
1506578868021,761
1506578868029,724
1506578868037,689
1506578868045,650
1506578868053,619
1506578868061,588
1506578868070,564
1506578868078,545
1506578868086,524
1506578868094,513
1506578868098,499
1506578868106,490
1506578868115,483
1506578868123,474
1506578868131,472
1506578868140,466
1506578868148,465
1506578868156,467
1506578868164,464
1506578868172,470
1506578868181,472
1506578868189,477
1506578868197,483
1506578868205,484
1506578868213,492
1506578868221,492
1506578868230,496
1506578868238,498
1506578868246,494
1506578868254,495
1506578868258,491
1506578868266,486
1506578868275,483
1506578868283,474
1506578868291,470
1506578868299,461
1506578868308,453
1506578868316,448
1506578868324,438
1506578868332,435
1506578868340,426
1506578868348,421
1506578868357,419
1506578868365,412
1506578868373,413
1506578868381,410
1506578868389,410
1506578868397,412
1506578868406,409
1506578868414,413
1506578868418,413
1506578868426,415
1506578868434,419
1506578868443,417
1506578868451,423
1506578868459,423
1506578868467,425
1506578868475,428
1506578868483,427
1506578868492,431
1506578868500,430
1506578868508,431
1506578868516,433
1506578868524,430
1506578868533,433
1506578868541,432
1506578868549,431
1506578868557,433
1506578868565,430
1506578868573,432
1506578868578,430
1506578868586,429
1506578868594,430
1506578868602,427
1506578868610,430
1506578868618,428
1506578868627,427
1506578868635,429
1506578868643,426
1506578868651,428
1506578868659,426
1506578868668,425
1506578868676,426
1506578868684,422
1506578868692,424
1506578868700,423
1506578868709,426
1506578868717,435
1506578868725,443
1506578868733,466
1506578868737,493
1506578868745,529
1506578868754,578
1506578868762,627
1506578868770,686
1506578868778,739
1506578868787,790
1506578868795,835
1506578868803,864
1506578868811,888
1506578868820,897
1506578868828,893
1506578868836,882
1506578868844,856
1506578868852,830
1506578868861,794
1506578868869,754
1506578868877,719
1506578868885,680
1506578868893,648
1506578868901,616
1506578868906,589
1506578868914,569
1506578868922,547
1506578868930,535
1506578868938,520
1506578868946,507
1506578868955,499
1506578868963,488
1506578868971,482
1506578868979,475
1506578868987,470
1506578868996,469
1506578869004,465
1506578869012,469
1506578869020,470
1506578869029,473
1506578869037,480
1506578869045,480
1506578869053,487
1506578869061,489
1506578869065,492
1506578869073,495
1506578869081,493
1506578869090,495
1506578869098,491
1506578869106,487
1506578869114,484
1506578869122,475
1506578869131,471
1506578869139,462
1506578869147,454
1506578869155,450
1506578869163,440
1506578869172,437
1506578869180,430
1506578869188,424
1506578869196,422
1506578869204,415
1506578869213,415
1506578869220,411
1506578869225,410
1506578869233,412
1506578869241,409
1506578869249,412
1506578869258,413
1506578869266,414
1506578869274,419
1506578869282,417
1506578869290,422
1506578869298,422
1506578869307,424
1506578869315,427
1506578869323,425
1506578869331,430
1506578869339,431
1506578869348,430
1506578869356,434
1506578869364,431
1506578869372,434
1506578869380,432
1506578869384,432
1506578869393,434
1506578869401,430
1506578869409,432
1506578869417,431
1506578869425,430
1506578869433,431
1506578869442,427
1506578869450,429
1506578869458,427
1506578869466,426
1506578869474,428
1506578869483,424
1506578869491,425
1506578869499,425
1506578869508,424
1506578869516,426
1506578869524,421
1506578869532,423
1506578869540,420
1506578869545,419
1506578869553,422
1506578869561,419
1506578869569,424
1506578869577,428
1506578869585,438
1506578869594,458
1506578869602,481
1506578869610,518
1506578869618,561
1506578869626,610
1506578869634,668
1506578869643,719
1506578869651,773
1506578869659,817
1506578869667,851
1506578869675,878
1506578869684,887
1506578869692,887
1506578869700,874
1506578869704,852
1506578869712,825
1506578869721,787
1506578869729,752
1506578869737,712
1506578869745,674
1506578869753,641
1506578869761,604
1506578869770,578
1506578869778,554
1506578869786,533
1506578869794,519
1506578869802,502
1506578869810,494
1506578869819,483
1506578869827,474
1506578869835,472
1506578869843,465
1506578869851,465
1506578869860,465
1506578869864,466
1506578869872,472
1506578869879,473
1506578869888,480
1506578869896,485
1506578869904,490
1506578869913,497
1506578869921,499
1506578869929,506
1506578869937,506
1506578869945,505
1506578869953,511
1506578869962,509
1506578869970,506
1506578869978,500
1506578869986,491
1506578869994,485
1506578870002,475
1506578870011,469
1506578870019,461
1506578870023,452
1506578870031,448
1506578870039,434
1506578870048,429
1506578870056,422
1506578870064,416
1506578870072,416
1506578870080,411
1506578870088,412
1506578870097,413
1506578870105,413
1506578870114,417
1506578870122,414
1506578870130,419
1506578870138,420
1506578870147,420
1506578870155,425
1506578870163,425
1506578870171,428
1506578870179,430
1506578870183,431
1506578870192,435
1506578870200,434
1506578870208,437
1506578870216,436
1506578870224,435
1506578870233,438
1506578870241,435
1506578870249,438
1506578870257,439
1506578870266,438
1506578870274,439
1506578870282,436
1506578870290,439
1506578870298,438
1506578870306,435
1506578870314,438
1506578870323,434
1506578870331,435
1506578870339,435
1506578870343,432
1506578870351,434
1506578870359,431
1506578870368,431
1506578870376,430
1506578870384,427
1506578870392,429
1506578870400,425
1506578870409,429
1506578870417,434
1506578870425,443
1506578870433,462
1506578870441,485
1506578870450,520
1506578870458,563
1506578870466,611
1506578870474,669
1506578870482,720
1506578870490,773
1506578870499,816
1506578870503,850
1506578870511,877
1506578870519,886
1506578870527,888
1506578870535,877
1506578870544,853
1506578870552,828
1506578870560,793
1506578870568,756
1506578870576,719
1506578870584,680
1506578870593,648
1506578870601,615
1506578870609,591
1506578870617,569
1506578870625,548
1506578870634,538
1506578870642,522
1506578870650,510
1506578870658,499
1506578870666,488
1506578870670,484
1506578870679,474
1506578870687,471
1506578870695,468
1506578870703,465
1506578870711,471
1506578870720,469
1506578870728,474
1506578870736,477
1506578870744,480
1506578870752,489
1506578870760,490
1506578870769,493
1506578870777,496
1506578870785,496
1506578870793,499
1506578870801,494
1506578870810,494
1506578870818,490
1506578870826,481
1506578870831,478
1506578870839,469
1506578870847,463
1506578870855,457
1506578870863,447
1506578870872,443
1506578870880,435
1506578870888,429
1506578870896,425
1506578870904,420
1506578870912,420
1506578870921,415
1506578870929,416
1506578870937,414
1506578870945,411
1506578870953,416
1506578870962,413
1506578870970,415
1506578870978,417
1506578870986,417
1506578870990,422
1506578870998,420
1506578871007,423
1506578871015,426
1506578871023,426
1506578871031,429
1506578871039,429
1506578871048,431
1506578871056,431
1506578871064,429
1506578871072,434
1506578871080,431
1506578871089,433
1506578871097,434
1506578871105,431
1506578871113,434
1506578871121,431
1506578871129,432
1506578871138,433
1506578871146,429
1506578871150,434
1506578871158,435
1506578871167,434
1506578871174,433
1506578871183,427
1506578871191,429
1506578871199,425
1506578871207,424
1506578871215,423
1506578871224,420
1506578871232,423
1506578871240,423
1506578871248,423
1506578871256,431
1506578871264,438
1506578871273,458
1506578871281,481
1506578871289,516
1506578871297,560
1506578871305,605
1506578871310,663
1506578871318,719
1506578871326,773
1506578871334,822
1506578871342,856
1506578871350,885
1506578871359,895
1506578871367,895
1506578871375,883
1506578871383,858
1506578871391,832
1506578871399,799
1506578871408,763
1506578871416,728
1506578871424,690
1506578871432,661
1506578871440,629
1506578871449,604
1506578871457,584
1506578871465,563
1506578871469,551
1506578871478,537
1506578871486,525
1506578871494,515
1506578871502,504
1506578871510,497
1506578871519,488
1506578871527,482
1506578871535,477
1506578871543,471
1506578871551,471
1506578871560,468
1506578871568,469
1506578871576,473
1506578871584,473
1506578871592,480
1506578871601,482
1506578871609,486
1506578871617,490
1506578871625,489
1506578871629,492
1506578871637,491
1506578871646,488
1506578871654,482
1506578871662,472
1506578871670,469
1506578871678,460
1506578871686,453
1506578871695,449
1506578871703,440
1506578871711,437
1506578871719,429
1506578871728,425
1506578871736,421
1506578871744,415
1506578871752,415
1506578871760,412
1506578871769,411
1506578871776,411
1506578871785,408
1506578871789,412
1506578871797,410
1506578871805,412
1506578871813,415
1506578871822,414
1506578871830,418
1506578871838,419
1506578871846,420
1506578871854,423
1506578871862,422
1506578871871,427
1506578871879,424
1506578871887,425
1506578871895,426
1506578871903,424
1506578871912,428
1506578871920,426
1506578871928,426
1506578871936,427
1506578871944,424
1506578871949,426
1506578871957,424
1506578871965,423
1506578871973,424
1506578871981,421
1506578871989,424
1506578871997,422
1506578872006,422
1506578872014,424
1506578872022,420
1506578872030,422
1506578872038,421
1506578872047,421
1506578872055,423
1506578872063,419
1506578872071,422
1506578872079,420
1506578872088,419
1506578872096,420
1506578872104,416
1506578872112,419
1506578872116,418
1506578872124,421
1506578872133,430
1506578872141,440
1506578872149,463
1506578872157,491
1506578872165,529
1506578872174,578
1506578872182,627
1506578872190,687
1506578872198,739
1506578872207,788
1506578872215,832
1506578872223,861
1506578872231,884
1506578872239,891
1506578872247,886
1506578872255,875
1506578872264,849
1506578872272,823
1506578872276,786
1506578872284,749
1506578872292,714
1506578872300,675
1506578872309,645
1506578872317,614
1506578872325,588
1506578872333,570
1506578872341,550
1506578872349,539
1506578872358,525
1506578872366,514
1506578872374,506
1506578872382,494
1506578872390,489
1506578872399,479
1506578872407,472
1506578872415,471
1506578872423,464
1506578872431,464
1506578872436,462
1506578872444,463
1506578872452,468
1506578872460,468
1506578872468,475
1506578872476,478
1506578872485,480
1506578872493,485
1506578872501,484
1506578872510,488
1506578872518,486
1506578872525,483
1506578872534,482
1506578872542,474
1506578872550,471
1506578872558,463
1506578872566,456
1506578872575,452
1506578872583,442
1506578872591,439
1506578872595,432
1506578872604,426
1506578872612,424
1506578872620,418
1506578872628,417
1506578872637,414
1506578872645,411
1506578872653,414
1506578872661,410
1506578872669,414
1506578872677,413
1506578872685,414
1506578872693,417
1506578872701,415
1506578872710,419
1506578872718,419
1506578872726,420
1506578872734,425
1506578872742,423
1506578872751,427
1506578872755,428
1506578872763,428
1506578872771,431
1506578872779,429
1506578872788,433
1506578872796,431
1506578872804,430
1506578872812,433
1506578872821,429
1506578872829,431
1506578872838,429
1506578872846,427
1506578872854,428
1506578872862,425
1506578872870,427
1506578872878,424
1506578872887,423
1506578872895,425
1506578872903,422
1506578872911,424
1506578872915,423
1506578872923,421
1506578872932,423
1506578872940,419
1506578872948,421
1506578872956,420
1506578872964,419
1506578872973,421
1506578872981,417
1506578872989,420
1506578872997,419
1506578873006,418
1506578873014,423
1506578873022,423
1506578873030,433
1506578873038,447
1506578873046,468
1506578873054,500
1506578873063,535
1506578873071,584
1506578873075,635
1506578873083,687
1506578873091,743
1506578873099,787
1506578873108,829
1506578873116,857
1506578873124,873
1506578873132,881
1506578873140,871
1506578873149,857
1506578873157,831
1506578873165,799
1506578873173,765
1506578873181,723
1506578873190,687
1506578873198,650
1506578873206,614
1506578873214,587
1506578873222,560
1506578873230,540
1506578873234,523
1506578873243,507
1506578873251,499
1506578873259,487
1506578873267,482
1506578873275,476
1506578873284,471
1506578873292,471
1506578873300,466
1506578873308,469
1506578873316,472
1506578873325,473
1506578873333,480
1506578873341,482
1506578873349,490
1506578873357,496
1506578873365,500
1506578873374,507
1506578873382,506
1506578873390,510
1506578873394,510
1506578873402,505
1506578873411,505
1506578873419,498
1506578873427,495
1506578873435,488
1506578873443,478
1506578873451,473
1506578873460,461
1506578873468,455
1506578873476,448
1506578873484,440
1506578873492,437
1506578873501,428
1506578873509,426
1506578873517,422
1506578873526,418
1506578873534,419
1506578873542,415
1506578873550,417
1506578873554,417
1506578873562,416
1506578873571,420
1506578873579,418
1506578873587,422
1506578873595,423
1506578873603,423
1506578873612,428
1506578873620,427
1506578873628,431
1506578873636,433
1506578873644,433
1506578873652,436
1506578873661,434
1506578873669,438
1506578873677,438
1506578873685,436
1506578873693,440
1506578873702,437
1506578873710,439
1506578873714,439
1506578873722,437
1506578873730,439
1506578873738,436
1506578873747,438
1506578873755,437
1506578873763,435
1506578873771,436
1506578873779,432
1506578873788,433
1506578873796,431
1506578873804,426
1506578873812,427
1506578873820,423
1506578873829,423
1506578873837,423
1506578873845,425
1506578873853,435
1506578873861,446
1506578873869,469
1506578873877,498
1506578873882,533
1506578873890,582
1506578873898,629
1506578873906,683
1506578873914,736
1506578873923,779
1506578873931,821
1506578873939,846
1506578873947,864
1506578873955,870
1506578873964,862
1506578873972,849
1506578873980,822
1506578873988,793
1506578873996,758
1506578874004,719
1506578874013,685
1506578874021,650
1506578874029,618
1506578874037,591
1506578874041,566
1506578874050,549
1506578874058,531
1506578874066,520
1506578874074,510
1506578874083,498
1506578874091,494
1506578874099,484
1506578874107,478
1506578874115,474
1506578874123,468
1506578874132,468
1506578874140,464
1506578874148,466
1506578874156,468
1506578874164,470
1506578874173,477
1506578874181,477
1506578874189,483
1506578874197,487
1506578874201,487
1506578874210,493
1506578874218,491
1506578874226,491
1506578874234,489
1506578874243,484
1506578874250,482
1506578874259,474
1506578874267,469
1506578874275,462
1506578874283,451
1506578874291,448
1506578874299,438
1506578874308,433
1506578874316,428
1506578874324,420
1506578874332,419
1506578874340,414
1506578874349,412
1506578874357,411
1506578874361,408
1506578874369,411
1506578874377,408
1506578874385,410
1506578874394,412
1506578874402,410
1506578874410,414
1506578874418,413
1506578874426,416
1506578874435,418
1506578874443,418
1506578874451,422
1506578874459,420
1506578874467,423
1506578874476,425
1506578874484,423
1506578874492,427
1506578874500,425
1506578874508,427
1506578874516,428
1506578874521,426
1506578874529,430
1506578874537,427
1506578874545,427
1506578874553,428
1506578874561,426
1506578874570,429
1506578874578,426
1506578874586,427
1506578874594,427
1506578874602,424
1506578874611,427
1506578874619,422
1506578874627,423
1506578874635,423
1506578874643,419
1506578874652,421
1506578874660,417
1506578874668,419
1506578874676,424
1506578874680,429
1506578874688,446
1506578874697,467
1506578874705,499
1506578874713,540
1506578874721,585
1506578874729,640
1506578874737,692
1506578874746,745
1506578874754,792
1506578874762,825
1506578874770,853
1506578874779,865
1506578874787,869
1506578874795,862
1506578874803,842
1506578874812,821
1506578874820,787
1506578874828,754
1506578874836,720
1506578874840,681
1506578874849,651
1506578874857,619
1506578874865,594
1506578874873,573
1506578874881,552
1506578874889,541
1506578874898,526
1506578874906,515
1506578874914,507
1506578874922,495
1506578874930,491
1506578874938,482
1506578874947,476
1506578874955,472
1506578874963,465
1506578874971,467
1506578874979,465
1506578874988,466
1506578874996,470
1506578875000,470
1506578875008,477
1506578875016,480
1506578875025,482
1506578875033,487
1506578875041,486
1506578875049,490
1506578875057,488
1506578875065,487
1506578875074,485
1506578875082,478
1506578875090,476
1506578875098,467
1506578875106,461
1506578875115,457
1506578875123,448
1506578875131,445
1506578875139,436
1506578875147,432
1506578875155,430
1506578875160,423
1506578875168,423
1506578875176,417
1506578875184,416
1506578875192,416
1506578875200,412
1506578875209,415
1506578875217,413
1506578875225,413
1506578875233,417
1506578875241,418
1506578875250,424
1506578875258,421
1506578875266,421
1506578875274,422
1506578875282,420
1506578875291,425
1506578875299,424
1506578875307,424
1506578875315,427
1506578875319,424
1506578875328,427
1506578875336,426
1506578875344,426
1506578875352,428
1506578875360,426
1506578875368,428
1506578875376,427
1506578875385,429
1506578875393,430
1506578875401,426
1506578875409,430
1506578875417,427
1506578875426,427
1506578875434,428
1506578875442,425
1506578875450,427
1506578875458,425
1506578875467,423
1506578875475,423
1506578875483,419
1506578875487,421
1506578875496,419
1506578875504,420
1506578875512,426
1506578875520,433
1506578875528,452
1506578875537,474
1506578875545,505
1506578875553,548
1506578875561,592
1506578875569,646
1506578875577,696
1506578875586,744
1506578875594,789
1506578875602,820
1506578875610,846
1506578875618,856
1506578875627,857
1506578875635,849
1506578875643,825
1506578875647,802
1506578875655,769
1506578875663,732
1506578875672,700
1506578875680,662
1506578875689,632
1506578875696,601
1506578875704,574
1506578875713,555
1506578875721,534
1506578875729,524
1506578875737,510
1506578875745,500
1506578875753,496
1506578875762,486
1506578875770,483
1506578875778,478
1506578875786,472
1506578875794,472
1506578875802,467
1506578875807,471
1506578875815,470
1506578875823,473
1506578875831,479
1506578875839,479
1506578875848,485
1506578875856,487
1506578875864,490
1506578875872,495
1506578875880,494
1506578875889,496
1506578875897,494
1506578875905,491
1506578875913,490
1506578875921,482
1506578875929,479
1506578875938,471
1506578875946,463
1506578875954,459
1506578875962,449
1506578875966,446
1506578875974,439
1506578875983,432
1506578875991,430
1506578875999,422
1506578876008,421
1506578876015,418
1506578876024,415
1506578876032,416
1506578876040,413
1506578876048,416
1506578876056,415
1506578876065,415
1506578876073,419
1506578876081,418
1506578876090,421
1506578876097,422
1506578876105,423
1506578876114,427
1506578876122,425
1506578876126,430
1506578876134,429
1506578876142,429
1506578876150,433
1506578876159,430
1506578876167,434
1506578876175,434
1506578876184,433
1506578876192,436
1506578876200,434
1506578876209,438
1506578876216,436
1506578876225,435
1506578876233,438
1506578876241,434
1506578876249,436
1506578876257,434
1506578876265,432
1506578876273,433
1506578876281,429
1506578876285,430
1506578876294,427
1506578876302,424
1506578876310,426
1506578876318,421
1506578876326,422
1506578876335,423
1506578876343,426
1506578876352,439
1506578876360,452
1506578876368,478
1506578876376,510
1506578876384,549
1506578876392,599
1506578876401,645
1506578876409,699
1506578876417,746
1506578876425,787
1506578876434,823
1506578876441,841
1506578876446,854
1506578876454,854
1506578876462,841
1506578876470,824
1506578876478,792
1506578876486,760
1506578876495,725
1506578876503,687
1506578876511,654
1506578876519,616
1506578876528,588
1506578876536,562
1506578876544,538
1506578876552,524
1506578876560,505
1506578876569,495
1506578876577,486
1506578876585,476
1506578876593,472
1506578876601,465
1506578876605,464
1506578876613,463
1506578876622,464
1506578876630,470
1506578876638,472
1506578876646,480
1506578876654,486
1506578876662,491
1506578876671,501
1506578876679,503
1506578876687,510
1506578876695,514
1506578876703,515
1506578876711,518
1506578876719,512
1506578876727,510
1506578876736,504
1506578876745,497
1506578876753,493
1506578876761,485
1506578876765,480
1506578876774,469
1506578876782,456
1506578876790,451
1506578876798,440
1506578876806,435
1506578876814,429
1506578876823,424
1506578876831,424
1506578876839,419
1506578876847,420
1506578876855,419
1506578876863,418
1506578876872,422
1506578876880,421
1506578876888,424
1506578876896,425
1506578876904,425
1506578876913,430
1506578876921,429
1506578876925,434
1506578876933,435
1506578876941,435
1506578876950,441
1506578876958,439
1506578876966,442
1506578876974,445
1506578876982,444
1506578876990,448
1506578876999,446
1506578877007,448
1506578877015,448
1506578877023,445
1506578877031,448
1506578877040,443
1506578877048,445
1506578877056,444
1506578877064,440
1506578877072,441
1506578877080,436
1506578877089,435
1506578877093,434
1506578877101,432
1506578877109,436
1506578877117,441
1506578877125,454
1506578877134,474
1506578877142,499
1506578877150,539
1506578877158,580
1506578877167,631
1506578877175,684
1506578877183,732
1506578877191,780
1506578877199,815
1506578877207,843
1506578877215,860
1506578877224,863
1506578877232,861
1506578877240,841
1506578877248,819
1506578877252,790
1506578877261,752
1506578877269,720
1506578877277,682
1506578877285,650
1506578877293,620
1506578877301,591
1506578877310,572
1506578877318,550
1506578877326,537
1506578877334,525
1506578877342,510
1506578877351,505
1506578877359,493
1506578877367,486
1506578877375,481
1506578877384,474
1506578877392,474
1506578877400,469
1506578877408,469
1506578877412,471
1506578877421,470
1506578877429,476
1506578877437,477
1506578877445,483
1506578877453,488
1506578877462,488
1506578877470,495
1506578877478,494
1506578877486,496
1506578877494,496
1506578877502,492
1506578877511,491
1506578877519,484
1506578877527,480
1506578877535,473
1506578877543,464
1506578877552,460
1506578877560,450
1506578877568,445
1506578877572,441
1506578877580,431
1506578877589,429
1506578877597,422
1506578877605,420
1506578877613,418
1506578877621,414
1506578877629,416
1506578877638,414
1506578877646,414
1506578877654,416
1506578877662,415
1506578877670,420
1506578877678,419
1506578877687,421
1506578877695,423
1506578877703,423
1506578877711,426
1506578877719,426
1506578877728,428
1506578877732,430
1506578877740,430
1506578877748,435
1506578877756,433
1506578877764,434
1506578877773,436
1506578877781,434
1506578877789,438
1506578877797,436
1506578877805,437
1506578877814,437
1506578877822,435
1506578877830,437
1506578877838,432
1506578877846,432
1506578877855,430
1506578877863,425
1506578877871,427
1506578877879,423
1506578877887,423
1506578877891,426
1506578877900,429
1506578877908,444
1506578877916,461
1506578877924,490
1506578877932,527
1506578877940,570
1506578877949,624
1506578877957,676
1506578877965,729
1506578877973,779
1506578877981,817
1506578877990,850
1506578877998,869
1506578878006,877
1506578878014,875
1506578878022,858
1506578878031,839
1506578878039,808
1506578878047,775
1506578878051,741
1506578878059,703
1506578878067,672
1506578878076,638
1506578878084,610
1506578878092,588
1506578878101,566
1506578878109,553
1506578878117,535
1506578878125,523
1506578878133,513
1506578878141,499
1506578878150,494
1506578878158,483
1506578878166,477
1506578878174,472
1506578878182,466
1506578878191,466
1506578878199,463
1506578878207,464
1506578878211,466
1506578878219,466
1506578878228,474
1506578878236,476
1506578878244,480
1506578878252,486
1506578878260,485
1506578878269,489
1506578878277,487
1506578878285,485
1506578878293,484
1506578878301,477
1506578878309,475
1506578878317,468
1506578878326,461
1506578878334,456
1506578878342,447
1506578878350,445
1506578878358,436
1506578878367,431
1506578878371,427
1506578878379,420
1506578878387,420
1506578878395,415
1506578878403,412
1506578878412,412
1506578878420,409
1506578878428,411
1506578878436,409
1506578878444,410
1506578878453,413
1506578878461,410
1506578878469,415
1506578878477,415
1506578878485,417
1506578878493,421
1506578878502,420
1506578878510,424
1506578878518,424
1506578878526,425
1506578878534,428
1506578878539,426
1506578878547,431
1506578878555,428
1506578878563,429
1506578878571,431
1506578878579,428
1506578878588,431
1506578878596,430
1506578878604,430
1506578878612,431
1506578878620,428
1506578878629,430
1506578878637,427
1506578878645,426
1506578878653,426
1506578878661,421
1506578878669,423
1506578878678,419
1506578878686,417
1506578878694,418
1506578878698,415
1506578878706,419
1506578878715,423
1506578878723,434
1506578878731,453
1506578878739,475
1506578878748,513
1506578878755,554
1506578878764,604
1506578878772,661
1506578878780,712
1506578878788,765
1506578878797,809
1506578878805,845
1506578878813,870
1506578878821,880
1506578878830,882
1506578878838,870
1506578878846,850
1506578878854,825
1506578878858,789
1506578878866,757
1506578878875,718
1506578878883,681
1506578878891,650
1506578878899,617
1506578878907,594
1506578878916,570
1506578878924,550
1506578878932,536
1506578878940,519
1506578878949,511
1506578878957,499
1506578878965,490
1506578878973,484
1506578878981,473
1506578878989,470
1506578878997,466
1506578879006,463
1506578879014,465
1506578879018,463
1506578879026,468
1506578879034,470
1506578879042,474
1506578879051,480
1506578879059,480
1506578879067,486
1506578879075,487
1506578879083,488
1506578879092,491
1506578879100,486
1506578879108,486
1506578879116,480
1506578879124,473
1506578879133,469
1506578879141,459
1506578879149,457
1506578879157,449
1506578879166,442
1506578879173,438
1506578879177,428
1506578879186,425
1506578879194,419
1506578879202,415
1506578879210,413
1506578879219,408
1506578879227,410
1506578879235,408
1506578879243,407
1506578879251,410
1506578879259,408
1506578879268,411
1506578879276,412
1506578879284,412
1506578879292,415
1506578879300,412
1506578879309,417
1506578879317,417
1506578879325,417
1506578879333,421
1506578879337,418
1506578879345,423
1506578879354,423
1506578879362,424
1506578879370,426
1506578879378,423
1506578879386,426
1506578879395,426
1506578879403,425
1506578879411,429
1506578879419,425
1506578879427,428
1506578879435,427
1506578879444,425
1506578879452,428
1506578879460,424
1506578879468,426
1506578879476,426
1506578879484,424
1506578879493,427
1506578879497,424
1506578879505,426
1506578879514,424
1506578879522,421
1506578879530,424
1506578879538,420
1506578879546,421
1506578879554,421
1506578879563,423
1506578879571,430
1506578879579,439
1506578879587,460
1506578879595,486
1506578879604,523
1506578879612,570
1506578879620,618
1506578879629,675
1506578879636,727
1506578879645,775
1506578879653,818
1506578879657,847
1506578879665,867
1506578879673,874
1506578879681,868
1506578879690,856
1506578879698,827
1506578879706,798
1506578879714,761
1506578879722,720
1506578879731,684
1506578879739,642
1506578879747,609
1506578879755,579
1506578879763,550
1506578879771,530
1506578879780,509
1506578879788,497
1506578879796,484
1506578879804,474
1506578879812,470
1506578879816,463
1506578879825,462
1506578879833,462
1506578879841,461
1506578879849,467
1506578879857,469
1506578879866,476
1506578879874,480
1506578879882,485
1506578879890,495
1506578879898,497
1506578879907,504
1506578879915,507
1506578879923,508
1506578879931,514
1506578879939,508
1506578879948,510
1506578879956,505
1506578879964,497
1506578879972,493
1506578879976,482
1506578879984,477
1506578879992,467
1506578880001,457
1506578880009,453
1506578880017,441
1506578880025,437
1506578880033,431
1506578880042,424
1506578880050,423
1506578880058,417
1506578880066,417
1506578880074,416
1506578880083,414
1506578880091,417
1506578880099,414
1506578880107,417
1506578880115,418
1506578880123,419
1506578880132,424
1506578880140,423
1506578880144,427
1506578880152,429
1506578880160,429
1506578880169,434
1506578880177,433
1506578880185,436
1506578880193,436
1506578880202,438
1506578880210,442
1506578880218,438
1506578880226,441
1506578880235,441
1506578880243,440
1506578880251,443
1506578880259,440
1506578880267,444
1506578880276,441
1506578880284,439
1506578880292,441
1506578880300,434
1506578880304,434
1506578880312,431
1506578880321,427
1506578880329,428
1506578880337,423
1506578880345,424
1506578880353,426
1506578880361,428
1506578880370,440
1506578880378,454
1506578880386,480
1506578880394,514
1506578880402,553
1506578880411,605
1506578880419,655
1506578880427,709
1506578880435,760
1506578880443,801
1506578880451,838
1506578880459,861
1506578880464,873
1506578880472,873
1506578880480,859
1506578880489,840
1506578880496,808
1506578880505,775
1506578880513,738
1506578880521,696
1506578880529,662
1506578880537,623
1506578880546,594
1506578880554,570
1506578880562,544
1506578880570,525
1506578880578,507
1506578880587,499
1506578880595,483
1506578880603,471
1506578880611,467
1506578880619,457
1506578880623,456
1506578880631,455
1506578880640,454
1506578880648,459
1506578880656,459
1506578880664,464
1506578880672,470
1506578880681,473
1506578880689,482
1506578880697,484
1506578880705,491
1506578880713,494
1506578880722,495
1506578880730,499
1506578880738,496
1506578880746,495
1506578880754,491
1506578880762,484
1506578880771,480
1506578880779,471
1506578880783,465
1506578880791,456
1506578880799,447
1506578880808,443
1506578880816,433
1506578880824,428
1506578880832,424
1506578880840,416
1506578880849,415
1506578880857,409
1506578880865,409
1506578880873,408
1506578880881,406
1506578880889,409
1506578880897,408
1506578880906,412
1506578880914,414
1506578880923,413
1506578880931,418
1506578880939,416
1506578880943,420
1506578880951,423
1506578880959,422
1506578880968,427
1506578880976,426
1506578880984,428
1506578880992,430
1506578881000,429
1506578881009,432
1506578881017,430
1506578881025,431
1506578881033,432
1506578881041,429
1506578881050,433
1506578881058,429
1506578881066,430
1506578881074,430
1506578881082,427
1506578881090,430
1506578881098,426
1506578881102,426
1506578881111,426
1506578881119,422
1506578881127,425
1506578881135,423
1506578881143,427
1506578881152,424
1506578881160,418
1506578881168,422
1506578881176,422
1506578881184,431
1506578881192,446
1506578881200,465
1506578881208,499
1506578881217,536
1506578881225,585
1506578881233,639
1506578881241,692
1506578881249,749
1506578881257,795
1506578881262,835
1506578881270,866
1506578881278,880
1506578881286,887
1506578881294,877
1506578881303,859
1506578881311,835
1506578881319,798
1506578881327,764
1506578881335,722
1506578881343,684
1506578881352,649
1506578881360,612
1506578881368,585
1506578881377,557
1506578881385,537
1506578881393,521
1506578881401,504
1506578881410,496
1506578881418,484
1506578881422,478
1506578881430,472
1506578881439,465
1506578881447,464
1506578881455,459
1506578881463,460
1506578881471,466
1506578881480,466
1506578881488,471
1506578881496,470
1506578881504,473
1506578881512,476
1506578881520,477
1506578881529,483
1506578881537,483
1506578881545,485
1506578881553,487
1506578881561,484
1506578881570,485
1506578881578,480
1506578881582,477
1506578881590,473
1506578881598,465
1506578881606,462
1506578881615,452
1506578881623,447
1506578881631,442
1506578881639,433
1506578881648,431
1506578881656,423
1506578881664,419
1506578881672,417
1506578881680,412
1506578881688,414
1506578881696,410
1506578881705,410
1506578881713,412
1506578881721,410
1506578881729,413
1506578881737,412
1506578881745,414
1506578881750,417
1506578881758,415
1506578881766,419
1506578881774,418
1506578881782,421
1506578881791,424
1506578881799,422
1506578881807,427
1506578881815,424
1506578881823,426
1506578881832,428
1506578881840,425
1506578881848,430
1506578881856,428
1506578881864,428
1506578881872,430
1506578881881,427
1506578881889,429
1506578881897,426
1506578881905,427
1506578881909,428
1506578881917,424
1506578881926,428
1506578881934,425
1506578881942,424
1506578881950,426
1506578881958,422
1506578881967,424
1506578881975,420
1506578881983,419
1506578881991,420
1506578882000,417
1506578882008,420
1506578882016,420
1506578882024,427
1506578882032,440
1506578882040,455
1506578882048,486
1506578882057,518
1506578882065,563
1506578882069,615
1506578882077,668
1506578882086,725
1506578882093,774
1506578882102,818
1506578882110,854
1506578882118,873
1506578882127,887
1506578882135,883
1506578882143,870
1506578882151,849
1506578882159,816
1506578882168,783
1506578882176,743
1506578882184,704
1506578882192,666
1506578882200,629
1506578882209,598
1506578882217,567
1506578882225,543
1506578882229,525
1506578882237,506
1506578882245,496
1506578882254,484
1506578882262,476
1506578882270,472
1506578882278,464
1506578882286,463
1506578882294,460
1506578882303,459
1506578882311,463
1506578882319,463
1506578882327,469
1506578882335,472
1506578882344,477
1506578882352,483
1506578882360,484
1506578882368,491
1506578882376,491
1506578882384,493
1506578882389,495
1506578882397,491
1506578882405,492
1506578882413,486
1506578882421,482
1506578882430,478
1506578882438,467
1506578882446,463
1506578882454,455
1506578882462,448
1506578882470,442
1506578882479,433
1506578882487,430
1506578882495,422
1506578882503,418
1506578882511,416
1506578882520,410
1506578882528,410
1506578882536,408
1506578882544,406
1506578882549,409
1506578882556,406
1506578882565,410
1506578882573,410
1506578882581,411
1506578882589,415
1506578882597,415
1506578882605,418
1506578882614,419
1506578882622,419
1506578882630,422
1506578882638,421
1506578882646,426
1506578882655,425
1506578882663,427
1506578882671,431
1506578882679,429
1506578882688,431
1506578882696,430
1506578882704,429
1506578882708,432
1506578882716,429
1506578882724,432
1506578882732,430
1506578882741,428
1506578882749,429
1506578882757,425
1506578882765,427
1506578882774,424
1506578882782,423
1506578882790,423
1506578882798,418
1506578882807,420
1506578882815,416
1506578882823,415
1506578882831,416
1506578882839,411
1506578882847,415
1506578882856,417
1506578882864,424
1506578882868,440
1506578882876,457
1506578882884,489
1506578882893,525
1506578882901,571
1506578882909,625
1506578882917,675
1506578882925,729
1506578882933,777
1506578882942,815
1506578882950,847
1506578882958,861
1506578882966,869
1506578882974,861
1506578882983,843
1506578882991,819
1506578882999,783
1506578883007,747
1506578883015,707
1506578883023,665
1506578883027,627
1506578883035,588
1506578883043,558
1506578883051,529
1506578883060,505
1506578883068,488
1506578883076,469
1506578883084,461
1506578883092,452
1506578883100,446
1506578883109,446
1506578883117,443
1506578883126,447
1506578883134,450
1506578883142,454
1506578883151,463
1506578883159,468
1506578883168,479
1506578883175,487
1506578883183,492
1506578883188,502
1506578883196,503
1506578883204,510
1506578883212,512
1506578883220,511
1506578883229,512
1506578883237,507
1506578883245,504
1506578883253,498
1506578883261,491
1506578883269,485
1506578883277,474
1506578883286,468
1506578883294,459
1506578883302,450
1506578883310,445
1506578883318,435
1506578883327,431
1506578883335,425
1506578883343,420
1506578883351,419
1506578883355,413
1506578883363,415
1506578883372,413
1506578883380,412
1506578883388,417
1506578883396,414
1506578883404,418
1506578883413,419
1506578883421,420
1506578883429,425
1506578883437,425
1506578883445,429
1506578883453,431
1506578883462,431
1506578883470,436
1506578883478,434
1506578883486,438
1506578883494,439
1506578883503,438
1506578883511,443
1506578883515,440
1506578883523,443
1506578883531,442
1506578883539,441
1506578883548,444
1506578883556,440
1506578883564,442
1506578883572,440
1506578883580,437
1506578883589,438
1506578883597,434
1506578883605,432
1506578883613,430
1506578883621,426
1506578883630,428
1506578883638,424
1506578883646,430
1506578883654,438
1506578883662,453
1506578883670,480
1506578883674,508
1506578883682,552
1506578883690,598
1506578883699,648
1506578883707,704
1506578883715,750
1506578883723,795
1506578883731,829
1506578883740,853
1506578883748,866
1506578883756,864
1506578883764,854
1506578883772,833
1506578883781,803
1506578883789,773
1506578883797,731
1506578883805,694
1506578883813,656
1506578883821,617
1506578883830,587
1506578883834,555
1506578883842,533
1506578883851,513
1506578883859,495
1506578883867,484
1506578883875,469
1506578883883,463
1506578883892,458
1506578883900,454
1506578883908,455
1506578883916,452
1506578883924,455
1506578883933,458
1506578883941,461
1506578883949,469
1506578883957,471
1506578883965,480
1506578883973,485
1506578883982,489
1506578883990,497
1506578883994,497
1506578884003,499
1506578884011,500
1506578884019,496
1506578884027,496
1506578884035,489
1506578884043,486
1506578884052,478
1506578884060,470
1506578884068,465
1506578884076,454
1506578884084,450
1506578884093,442
1506578884101,433
1506578884109,430
1506578884117,423
1506578884125,419
1506578884133,416
1506578884142,413
1506578884150,413
1506578884154,410
1506578884162,411
1506578884170,411
1506578884179,410
1506578884187,413
1506578884195,412
1506578884203,416
1506578884211,417
1506578884219,417
1506578884228,421
1506578884236,421
1506578884244,423
1506578884252,425
1506578884260,425
1506578884269,430
1506578884277,428
1506578884285,431
1506578884293,433
1506578884301,432
1506578884310,435
1506578884314,433
1506578884322,435
1506578884330,435
1506578884338,434
1506578884346,436
1506578884354,433
1506578884363,434
1506578884371,433
1506578884379,429
1506578884387,431
1506578884395,427
1506578884404,426
1506578884412,425
1506578884420,422
1506578884428,424
1506578884436,423
1506578884445,431
1506578884453,442
1506578884461,459
1506578884469,491
1506578884473,523
1506578884481,569
1506578884490,620
1506578884498,671
1506578884506,726
1506578884514,772
1506578884522,812
1506578884531,844
1506578884539,861
1506578884547,870
1506578884555,863
1506578884563,850
1506578884571,826
1506578884580,793
1506578884588,761
1506578884596,721
1506578884604,683
1506578884612,646
1506578884621,609
1506578884629,582
1506578884633,553
1506578884641,532
1506578884649,515
1506578884657,498
1506578884666,490
1506578884674,478
1506578884682,472
1506578884690,467
1506578884699,461
1506578884707,462
1506578884715,459
1506578884723,461
1506578884732,463
1506578884740,464
1506578884748,472
1506578884756,475
1506578884764,481
1506578884772,486
1506578884781,488
1506578884789,495
1506578884793,496
1506578884801,498
1506578884809,500
1506578884818,496
1506578884826,496
1506578884834,491
1506578884842,486
1506578884850,480
1506578884858,471
1506578884867,467
1506578884875,456
1506578884883,449
1506578884891,443
1506578884900,433
1506578884908,429
1506578884916,422
1506578884924,419
1506578884932,415
1506578884940,411
1506578884949,412
1506578884957,407
1506578884961,409
1506578884969,410
1506578884977,407
1506578884985,412
1506578884994,410
1506578885002,412
1506578885010,415
1506578885018,414
1506578885026,418
1506578885035,417
1506578885043,420
1506578885051,423
1506578885059,422
1506578885067,426
1506578885075,424
1506578885083,425
1506578885092,428
1506578885100,426
1506578885108,429
1506578885116,427
1506578885120,429
1506578885129,430
1506578885137,427
1506578885145,429
1506578885153,426
1506578885161,427
1506578885169,427
1506578885178,423
1506578885186,426
1506578885194,423
1506578885202,423
1506578885210,423
1506578885219,419
1506578885227,420
1506578885235,416
1506578885243,415
1506578885251,416
1506578885260,415
1506578885268,423
1506578885276,431
1506578885280,450
1506578885288,477
1506578885296,507
1506578885305,553
1506578885313,599
1506578885321,651
1506578885329,704
1506578885337,751
1506578885345,795
1506578885354,826
1506578885362,849
1506578885371,860
1506578885379,856
1506578885387,847
1506578885395,823
1506578885403,793
1506578885411,760
1506578885420,720
1506578885428,684
1506578885436,645
1506578885440,609
1506578885449,578
1506578885457,548
1506578885465,528
1506578885473,507
1506578885481,492
1506578885489,482
1506578885497,469
1506578885506,465
1506578885514,458
1506578885522,455
1506578885530,455
1506578885538,453
1506578885546,458
1506578885555,458
1506578885563,462
1506578885571,468
1506578885579,471
1506578885587,479
1506578885596,482
1506578885600,487
1506578885608,494
1506578885616,494
1506578885624,497
1506578885633,496
1506578885641,496
1506578885649,495
1506578885657,488
1506578885665,486
1506578885673,478
1506578885682,472
1506578885690,467
1506578885698,456
1506578885706,453
1506578885714,444
1506578885723,437
1506578885731,433
1506578885739,424
1506578885747,422
1506578885755,416
1506578885759,414
1506578885768,413
1506578885776,408
1506578885784,411
1506578885792,410
1506578885800,410
1506578885809,414
1506578885817,412
1506578885825,415
1506578885833,415
1506578885841,416
1506578885849,419
1506578885858,417
1506578885866,422
1506578885874,421
1506578885882,423
1506578885890,426
1506578885899,424
1506578885907,427
1506578885915,426
1506578885919,427
1506578885927,429
1506578885935,427
1506578885943,431
1506578885952,429
1506578885960,428
1506578885968,430
1506578885976,426
1506578885984,428
1506578885993,427
1506578886001,425
1506578886009,426
1506578886017,423
1506578886025,424
1506578886034,422
1506578886042,421
1506578886050,421
1506578886058,417
1506578886067,419
1506578886075,416
1506578886079,415
1506578886087,418
1506578886095,420
1506578886104,432
1506578886112,445
1506578886120,468
1506578886128,501
1506578886136,536
1506578886145,584
1506578886153,630
1506578886161,680
1506578886169,729
1506578886177,767
1506578886185,803
1506578886194,825
1506578886202,836
1506578886210,839
1506578886218,826
1506578886226,810
1506578886235,781
1506578886239,749
1506578886247,714
1506578886255,672
1506578886263,637
1506578886271,599
1506578886280,565
1506578886288,539
1506578886296,510
1506578886304,493
1506578886312,474
1506578886321,461
1506578886329,454
1506578886337,445
1506578886345,443
1506578886353,441
1506578886361,442
1506578886370,447
1506578886378,449
1506578886386,459
1506578886394,467
1506578886402,474
1506578886406,484
1506578886415,490
1506578886423,500
1506578886431,504
1506578886439,509
1506578886448,514
1506578886456,513
1506578886464,515
1506578886472,511
1506578886480,507
1506578886488,505
1506578886497,496
1506578886505,492
1506578886513,483
1506578886521,474
1506578886529,468
1506578886538,457
1506578886546,453
1506578886554,443
1506578886562,437
1506578886566,433
1506578886574,425
1506578886583,424
1506578886591,420
1506578886599,417
1506578886607,418
1506578886615,415
1506578886623,417
1506578886632,416
1506578886640,417
1506578886648,420
1506578886656,418
1506578886664,423
1506578886673,425
1506578886681,426
1506578886689,430
1506578886697,429
1506578886705,433
1506578886713,434
1506578886722,436
1506578886726,440
1506578886734,439
1506578886742,443
1506578886750,444
1506578886759,445
1506578886767,448
1506578886775,445
1506578886784,448
1506578886792,447
1506578886800,447
1506578886808,448
1506578886816,444
1506578886824,445
1506578886833,441
1506578886841,438
1506578886849,439
1506578886857,434
1506578886865,435
1506578886874,433
1506578886882,436
1506578886886,446
1506578886894,458
1506578886902,482
1506578886911,510
1506578886919,546
1506578886927,592
1506578886935,635
1506578886943,684
1506578886951,728
1506578886960,766
1506578886968,800
1506578886976,818
1506578886984,831
1506578886992,832
1506578887000,820
1506578887009,803
1506578887017,773
1506578887025,744
1506578887033,708
1506578887041,669
1506578887046,636
1506578887054,598
1506578887062,568
1506578887070,540
1506578887078,515
1506578887086,498
1506578887095,479
1506578887103,469
1506578887111,459
1506578887119,452
1506578887128,451
1506578887136,447
1506578887144,451
1506578887152,453
1506578887160,456
1506578887168,465
1506578887176,469
1506578887185,478
1506578887193,484
1506578887201,492
1506578887205,501
1506578887213,503
1506578887222,511
1506578887230,512
1506578887238,511
1506578887246,513
1506578887254,508
1506578887263,507
1506578887271,501
1506578887279,494
1506578887287,489
1506578887295,478
1506578887303,472
1506578887312,463
1506578887320,454
1506578887328,450
1506578887336,441
1506578887344,437
1506578887353,432
1506578887361,426
1506578887365,425
1506578887373,421
1506578887381,421
1506578887389,421
1506578887398,420
1506578887406,422
1506578887414,420
1506578887422,422
1506578887430,423
1506578887439,423
1506578887447,427
1506578887455,426
1506578887464,430
1506578887472,432
1506578887480,432
1506578887488,436
1506578887496,435
1506578887504,438
1506578887513,439
1506578887521,439
1506578887525,442
1506578887533,439
1506578887541,441
1506578887549,442
1506578887558,440
1506578887566,442
1506578887574,439
1506578887582,440
1506578887590,438
1506578887599,435
1506578887607,435
1506578887615,430
1506578887623,430
1506578887631,428
1506578887639,426
1506578887648,432
1506578887656,435
1506578887664,449
1506578887672,468
1506578887680,495
1506578887689,533
1506578887693,574
1506578887701,623
1506578887709,672
1506578887717,718
1506578887725,765
1506578887733,797
1506578887741,826
1506578887750,841
1506578887758,842
1506578887766,838
1506578887774,820
1506578887782,797
1506578887791,767
1506578887799,731
1506578887807,697
1506578887815,657
1506578887824,624
1506578887832,591
1506578887840,559
1506578887848,537
1506578887852,514
1506578887861,498
1506578887869,483
1506578887877,472
1506578887885,466
1506578887893,458
1506578887902,458
1506578887910,456
1506578887918,456
1506578887926,459
1506578887934,460
1506578887942,466
1506578887951,471
1506578887959,476
1506578887967,485
1506578887975,488
1506578887983,496
1506578887991,502
1506578888000,505
1506578888008,511
1506578888012,509
1506578888020,510
1506578888028,507
1506578888037,501
1506578888045,498
1506578888053,489
1506578888061,483
1506578888069,476
1506578888077,465
1506578888086,460
1506578888094,449
1506578888102,444
1506578888110,437
1506578888118,430
1506578888127,427
1506578888135,419
1506578888143,419
1506578888152,417
1506578888160,413
1506578888168,415
1506578888172,413
1506578888180,415
1506578888188,416
1506578888197,416
1506578888205,421
1506578888213,420
1506578888221,423
1506578888230,425
1506578888237,425
1506578888246,430
1506578888254,428
1506578888262,432
1506578888270,434
1506578888278,433
1506578888287,437
1506578888295,436
1506578888303,440
1506578888311,440
1506578888319,439
1506578888328,442
1506578888332,439
1506578888340,440
1506578888348,439
1506578888356,436
1506578888364,438
1506578888373,435
1506578888381,435
1506578888389,433
1506578888397,430
1506578888405,430
1506578888414,427
1506578888422,427
1506578888430,429
1506578888438,431
1506578888446,444
1506578888454,458
1506578888463,483
1506578888471,515
1506578888479,554
1506578888487,602
1506578888491,649
1506578888499,700
1506578888508,745
1506578888516,783
1506578888524,817
1506578888532,834
1506578888540,846
1506578888549,845
1506578888557,831
1506578888565,813
1506578888573,783
1506578888581,751
1506578888590,715
1506578888598,676
1506578888606,642
1506578888614,606
1506578888622,575
1506578888631,550
1506578888638,524
1506578888647,510
1506578888651,492
1506578888659,481
1506578888668,473
1506578888675,463
1506578888684,461
1506578888692,456
1506578888700,458
1506578888708,460
1506578888716,461
1506578888725,468
1506578888733,471
1506578888741,478
1506578888749,485
1506578888757,489
1506578888765,498
1506578888774,501
1506578888782,506
1506578888790,509
1506578888798,508
1506578888806,510
1506578888811,507
1506578888819,506
1506578888827,502
1506578888835,493
1506578888844,490
1506578888852,480
1506578888860,472
1506578888869,465
1506578888876,456
1506578888885,450
1506578888893,442
1506578888901,437
1506578888909,432
1506578888917,426
1506578888926,425
1506578888934,419
1506578888942,418
1506578888950,419
1506578888958,416
1506578888966,420
1506578888971,418
1506578888979,419
1506578888987,422
1506578888995,422
1506578889003,427
1506578889012,426
1506578889020,428
1506578889028,432
1506578889036,431
1506578889044,435
1506578889052,435
1506578889061,436
1506578889069,439
1506578889077,436
1506578889085,439
1506578889093,436
1506578889102,437
1506578889110,438
1506578889118,436
1506578889126,439
1506578889130,437
1506578889139,437
1506578889147,437
1506578889155,434
1506578889163,436
1506578889171,433
1506578889179,432
1506578889188,432
1506578889196,427
1506578889204,429
1506578889212,426
1506578889220,425
1506578889229,426
1506578889237,425
1506578889245,432
1506578889253,439
1506578889261,454
1506578889270,479
1506578889278,507
1506578889286,548
1506578889294,590
1506578889298,639
1506578889306,690
1506578889314,734
1506578889323,776
1506578889331,805
1506578889339,826
1506578889348,838
1506578889355,833
1506578889364,826
1506578889372,804
1506578889380,776
1506578889388,745
1506578889396,706
1506578889404,671
1506578889413,631
1506578889421,597
1506578889429,566
1506578889437,535
1506578889445,514
1506578889453,491
1506578889458,476
1506578889466,464
1506578889474,452
1506578889482,449
1506578889491,444
1506578889499,443
1506578889507,445
1506578889515,446
1506578889523,454
1506578889531,458
1506578889540,466
1506578889548,475
1506578889556,480
1506578889565,491
1506578889573,497
1506578889581,503
1506578889589,509
1506578889597,509
1506578889606,512
1506578889614,510
1506578889618,508
1506578889626,506
1506578889634,498
1506578889642,495
1506578889651,487
1506578889659,479
1506578889667,473
1506578889675,463
1506578889683,457
1506578889691,449
1506578889700,442
1506578889708,437
1506578889716,429
1506578889724,428
1506578889732,422
1506578889741,420
1506578889749,420
1506578889757,416
1506578889765,418
1506578889773,416
1506578889777,416
1506578889786,419
1506578889794,418
1506578889802,422
1506578889810,423
1506578889818,424
1506578889826,428
1506578889835,427
1506578889843,432
1506578889851,433
1506578889859,434
1506578889868,438
1506578889876,437
1506578889884,441
1506578889892,441
1506578889900,442
1506578889909,444
1506578889917,443
1506578889925,446
1506578889933,443
1506578889937,443
1506578889945,443
1506578889954,440
1506578889962,442
1506578889970,438
1506578889978,436
1506578889986,436
1506578889994,432
1506578890002,432
1506578890011,429
1506578890019,429
1506578890027,435
1506578890035,442
1506578890043,460
1506578890052,480
1506578890060,510
1506578890068,551
1506578890076,593
1506578890084,645
1506578890092,692
1506578890097,737
1506578890105,780
1506578890113,811
1506578890121,836
1506578890129,846
1506578890138,845
1506578890146,837
1506578890154,815
1506578890162,790
1506578890170,755
1506578890179,716
1506578890187,681
1506578890195,639
1506578890204,604
1506578890212,569
1506578890220,538
1506578890228,515
1506578890236,492
1506578890244,478
1506578890253,463
1506578890257,453
1506578890265,449
1506578890273,446
1506578890282,451
1506578890290,451
1506578890298,453
1506578890306,460
1506578890314,464
1506578890322,474
1506578890330,480
1506578890339,488
1506578890347,499
1506578890355,503
1506578890363,512
1506578890371,515
1506578890380,517
1506578890388,520
1506578890396,517
1506578890404,516
1506578890412,511
1506578890416,505
1506578890425,500
1506578890433,490
1506578890441,483
1506578890450,474
1506578890457,465
1506578890466,458
1506578890474,448
1506578890482,445
1506578890490,438
1506578890498,432
1506578890506,430
1506578890515,424
1506578890523,424
1506578890531,421
1506578890539,420
1506578890547,422
1506578890556,420
1506578890564,423
1506578890572,424
1506578890576,425
1506578890584,431
1506578890592,428
1506578890601,431
1506578890609,432
1506578890617,433
1506578890625,437
1506578890633,435
1506578890641,438
1506578890650,439
1506578890658,439
1506578890666,442
1506578890674,440
1506578890682,442
1506578890691,442
1506578890699,441
1506578890707,443
1506578890715,439
1506578890723,440
1506578890731,437
1506578890736,435
1506578890744,435
1506578890752,431
1506578890760,432
1506578890769,429
1506578890776,428
1506578890785,432
1506578890793,435
1506578890801,448
1506578890809,467
1506578890817,492
1506578890826,529
1506578890834,569
1506578890842,618
1506578890850,668
1506578890858,714
1506578890867,761
1506578890875,795
1506578890883,826
1506578890891,843
1506578890899,847
1506578890903,846
1506578890912,827
1506578890920,806
1506578890929,775
1506578890937,739
1506578890945,704
1506578890953,663
1506578890961,628
1506578890969,594
1506578890978,563
1506578890986,539
1506578890994,514
1506578891002,498
1506578891010,483
1506578891019,470
1506578891027,464
1506578891035,455
1506578891043,454
1506578891051,453
1506578891059,453
1506578891064,457
1506578891072,458
1506578891080,466
1506578891088,471
1506578891096,477
1506578891104,488
1506578891113,491
1506578891121,499
1506578891129,504
1506578891137,506
1506578891145,510
1506578891154,508
1506578891162,509
1506578891170,506
1506578891178,500
1506578891186,498
1506578891195,489
1506578891203,484
1506578891211,477
1506578891219,468
1506578891223,464
1506578891231,454
1506578891240,449
1506578891248,443
1506578891256,435
1506578891264,432
1506578891272,425
1506578891280,423
1506578891289,421
1506578891297,417
1506578891305,418
1506578891313,414
1506578891321,417
1506578891330,417
1506578891338,415
1506578891346,419
1506578891354,418
1506578891362,421
1506578891371,422
1506578891379,423
1506578891383,428
1506578891391,426
1506578891399,430
1506578891407,431
1506578891416,431
1506578891424,435
1506578891432,434
1506578891440,438
1506578891448,438
1506578891456,437
1506578891465,440
1506578891473,437
1506578891481,439
1506578891489,439
1506578891497,437
1506578891506,439
1506578891514,435
1506578891522,436
1506578891530,434
1506578891538,432
1506578891542,432
1506578891551,428
1506578891559,428
1506578891567,427
1506578891575,428
1506578891583,437
1506578891592,446
1506578891600,469
1506578891609,498
1506578891617,533
1506578891625,581
1506578891633,629
1506578891641,682
1506578891649,732
1506578891657,776
1506578891666,817
1506578891674,842
1506578891682,861
1506578891690,867
1506578891698,858
1506578891703,844
1506578891711,816
1506578891719,786
1506578891727,750
1506578891735,708
1506578891743,672
1506578891752,631
1506578891760,597
1506578891768,566
1506578891776,537
1506578891784,519
1506578891793,498
1506578891801,484
1506578891809,474
1506578891817,463
1506578891825,460
1506578891833,455
1506578891842,456
1506578891850,457
1506578891858,458
1506578891862,465
1506578891870,467
1506578891879,475
1506578891887,482
1506578891895,487
1506578891903,496
1506578891911,501
1506578891919,508
1506578891928,511
1506578891936,511
1506578891944,513
1506578891952,510
1506578891960,509
1506578891969,504
1506578891977,496
1506578891985,492
1506578891993,482
1506578892001,475
1506578892009,467
1506578892018,457
1506578892022,452
1506578892030,440
1506578892038,435
1506578892046,429
1506578892055,422
1506578892063,420
1506578892071,415
1506578892079,414
1506578892088,413
1506578892095,409
1506578892104,413
1506578892112,411
1506578892120,412
1506578892128,414
1506578892136,415
1506578892145,419
1506578892153,419
1506578892161,423
1506578892169,425
1506578892177,426
1506578892181,430
1506578892190,429
1506578892198,432
1506578892206,433
1506578892214,432
1506578892222,434
1506578892230,434
1506578892239,435
1506578892247,435
1506578892255,433
1506578892263,436
1506578892271,434
1506578892279,436
1506578892288,436
1506578892296,433
1506578892304,435
1506578892312,431
1506578892320,431
1506578892329,430
1506578892337,427
1506578892341,428
1506578892350,423
1506578892358,423
1506578892366,421
1506578892374,418
1506578892382,422
1506578892391,423
1506578892399,433
1506578892407,448
1506578892415,468
1506578892423,502
1506578892431,538
1506578892440,586
1506578892448,638
1506578892456,689
1506578892464,741
1506578892472,785
1506578892480,824
1506578892489,852
1506578892497,864
1506578892505,872
1506578892509,861
1506578892517,844
1506578892526,818
1506578892534,782
1506578892542,745
1506578892550,702
1506578892558,662
1506578892566,623
1506578892575,584
1506578892583,555
1506578892591,524
1506578892599,504
1506578892607,486
1506578892616,468
1506578892624,459
1506578892632,449
1506578892640,446
1506578892648,445
1506578892657,444
1506578892665,449
1506578892669,450
1506578892677,457
1506578892685,464
1506578892693,469
1506578892702,480
1506578892710,486
1506578892718,493
1506578892726,501
1506578892734,504
1506578892742,510
1506578892751,510
1506578892759,511
1506578892767,511
1506578892775,505
1506578892783,503
1506578892792,494
1506578892800,488
1506578892809,481
1506578892817,471
1506578892825,466
1506578892829,456
1506578892837,448
1506578892845,443
1506578892853,433
1506578892862,430
1506578892870,423
1506578892878,420
1506578892886,418
1506578892894,414
1506578892903,415
1506578892911,412
1506578892919,413
1506578892927,416
1506578892935,414
1506578892943,418
1506578892952,417
1506578892960,420
1506578892968,423
1506578892976,423
1506578892984,428
1506578892989,427
1506578892997,430
1506578893005,434
1506578893013,433
1506578893021,438
1506578893030,438
1506578893038,439
1506578893046,442
1506578893054,440
1506578893062,443
1506578893070,441
1506578893079,442
1506578893087,443
1506578893095,439
1506578893103,442
1506578893111,444
1506578893119,445
1506578893128,443
1506578893136,437
1506578893144,438
1506578893148,433
1506578893156,435
1506578893164,431
1506578893173,428
1506578893181,431
1506578893189,434
1506578893197,444
1506578893205,464
1506578893214,487
1506578893222,524
1506578893230,565
1506578893238,614
1506578893246,666
1506578893255,715
1506578893263,762
1506578893271,800
1506578893279,831
1506578893287,851
1506578893295,858
1506578893304,859
1506578893308,844
1506578893316,823
1506578893324,796
1506578893332,758
1506578893340,720
1506578893348,677
1506578893356,637
1506578893365,600
1506578893373,563
1506578893381,535
1506578893389,508
1506578893397,487
1506578893405,471
1506578893414,455
1506578893422,448
1506578893431,440
1506578893439,437
1506578893448,439
1506578893455,439
1506578893464,447
1506578893468,452
1506578893476,461
1506578893484,472
1506578893492,480
1506578893501,493
1506578893509,500
1506578893517,508
1506578893525,516
1506578893534,519
1506578893542,523
1506578893550,523
1506578893558,521
1506578893566,521
1506578893574,513
1506578893582,511
1506578893591,499
1506578893599,488
1506578893607,481
1506578893615,467
1506578893623,459
1506578893628,449
1506578893636,441
1506578893644,435
1506578893652,426
1506578893660,423
1506578893669,418
1506578893677,415
1506578893685,415
1506578893693,411
1506578893701,415
1506578893710,413
1506578893718,414
1506578893725,418
1506578893733,418
1506578893741,421
1506578893750,423
1506578893758,425
1506578893766,429
1506578893774,428
1506578893782,434
1506578893786,433
1506578893795,435
1506578893803,438
1506578893812,437
1506578893820,441
1506578893828,441
1506578893836,441
1506578893844,443
1506578893852,441
1506578893861,444
1506578893869,440
1506578893877,440
1506578893885,441
1506578893893,436
1506578893902,437
1506578893910,433
1506578893919,430
1506578893927,431
1506578893935,426
1506578893943,428
1506578893947,429
1506578893955,436
1506578893963,450
1506578893972,469
1506578893980,502
1506578893988,539
1506578893996,584
1506578894004,636
1506578894013,685
1506578894021,738
1506578894029,781
1506578894037,818
1506578894045,846
1506578894053,859
1506578894062,865
1506578894070,856
1506578894078,838
1506578894086,814
1506578894094,779
1506578894102,744
1506578894107,703
1506578894115,662
1506578894123,624
1506578894131,586
1506578894139,557
1506578894148,528
1506578894156,505
1506578894164,489
1506578894172,470
1506578894180,461
1506578894189,451
1506578894197,445
1506578894205,444
1506578894213,441
1506578894222,446
1506578894229,447
1506578894238,452
1506578894246,462
1506578894254,466
1506578894262,477
1506578894270,484
1506578894274,491
1506578894283,500
1506578894291,504
1506578894299,510
1506578894307,511
1506578894315,512
1506578894324,512
1506578894331,506
1506578894340,504
1506578894348,497
1506578894356,489
1506578894364,483
1506578894372,471
1506578894381,465
1506578894389,456
1506578894397,447
1506578894405,440
1506578894414,431
1506578894422,427
1506578894430,420
1506578894434,416
1506578894442,416
1506578894450,410
1506578894458,413
1506578894466,412
1506578894475,411
1506578894483,414
1506578894491,413
1506578894499,418
1506578894508,418
1506578894516,419
1506578894524,425
1506578894532,423
1506578894540,429
1506578894548,433
1506578894557,433
1506578894565,438
1506578894573,436
1506578894581,439
1506578894589,439
1506578894593,438
1506578894602,439
1506578894610,436
1506578894618,438
1506578894626,440
1506578894634,440
1506578894642,440
1506578894651,437
1506578894659,440
1506578894667,433
1506578894675,429
1506578894683,429
1506578894692,424
1506578894700,424
1506578894708,421
1506578894717,419
1506578894725,421
1506578894733,422
1506578894741,433
1506578894749,448
1506578894753,473
1506578894761,507
1506578894769,542
1506578894778,592
1506578894786,643
1506578894794,696
1506578894802,750
1506578894811,795
1506578894819,835
1506578894827,861
1506578894835,875
1506578894843,881
1506578894851,869
1506578894859,852
1506578894868,826
1506578894876,793
1506578894885,756
1506578894893,710
1506578894901,670
1506578894909,629
1506578894914,591
1506578894922,561
1506578894930,530
1506578894938,510
1506578894946,490
1506578894955,474
1506578894963,465
1506578894971,453
1506578894979,450
1506578894987,447
1506578894995,445
1506578895004,450
1506578895012,451
1506578895020,463
1506578895028,470
1506578895036,476
1506578895045,484
1506578895053,485
1506578895061,494
1506578895069,500
1506578895073,503
1506578895081,509
1506578895090,509
1506578895098,511
1506578895106,508
1506578895114,505
1506578895122,507
1506578895131,497
1506578895139,493
1506578895147,483
1506578895155,471
1506578895163,465
1506578895172,452
1506578895180,447
1506578895188,443
1506578895196,433
1506578895204,430
1506578895212,424
1506578895221,419
1506578895229,418
1506578895233,413
1506578895241,416
1506578895249,412
1506578895257,412
1506578895266,412
1506578895274,411
1506578895282,415
1506578895290,414
1506578895298,417
1506578895307,419
1506578895315,419
1506578895323,423
1506578895331,422
1506578895339,426
1506578895348,428
1506578895356,429
1506578895364,432
1506578895372,430
1506578895380,435
1506578895388,438
1506578895392,438
1506578895401,441
1506578895409,440
1506578895417,440
1506578895425,439
1506578895433,435
1506578895442,434
1506578895450,431
1506578895458,434
1506578895466,430
1506578895474,425
1506578895483,426
1506578895491,421
1506578895499,420
1506578895507,419
1506578895516,415
1506578895524,418
1506578895532,414
1506578895540,417
1506578895549,420
1506578895553,427
1506578895561,445
1506578895569,464
1506578895577,497
1506578895585,538
1506578895594,584
1506578895602,639
1506578895610,692
1506578895618,747
1506578895626,794
1506578895635,834
1506578895643,866
1506578895651,879
1506578895659,885
1506578895667,878
1506578895675,856
1506578895684,831
1506578895692,793
1506578895700,754
1506578895708,712
1506578895716,667
1506578895721,627
1506578895729,587
1506578895737,555
1506578895745,525
1506578895753,498
1506578895761,480
1506578895770,460
1506578895778,449
1506578895786,441
1506578895794,434
1506578895802,434
1506578895810,433
1506578895819,439
1506578895827,446
1506578895835,452
1506578895843,464
1506578895851,471
1506578895859,482
1506578895868,493
1506578895876,500
1506578895880,510
1506578895888,517
1506578895897,525
1506578895905,528
1506578895913,526
1506578895921,528
1506578895929,521
1506578895937,515
1506578895945,504
1506578895954,490
1506578895962,482
1506578895970,470
1506578895978,461
1506578895986,452
1506578895995,444
1506578896003,439
1506578896011,428
1506578896019,424
1506578896027,418
1506578896035,412
1506578896039,412
1506578896048,409
1506578896056,409
1506578896065,410
1506578896073,407
1506578896081,411
1506578896089,411
1506578896097,413
1506578896105,416
1506578896114,417
1506578896122,422
1506578896130,423
1506578896138,427
1506578896146,429
1506578896155,429
1506578896163,435
1506578896171,435
1506578896179,439
1506578896187,441
1506578896195,440
1506578896199,444
1506578896208,443
1506578896216,445
1506578896224,445
1506578896232,443
1506578896241,446
1506578896249,442
1506578896257,441
1506578896265,440
1506578896273,438
1506578896281,439
1506578896290,437
1506578896298,434
1506578896306,430
1506578896314,429
1506578896322,430
1506578896330,427
1506578896339,433
1506578896347,442
1506578896355,456
1506578896359,486
1506578896368,521
1506578896376,568
1506578896384,621
1506578896392,674
1506578896400,733
1506578896409,783
1506578896417,828
1506578896425,863
1506578896433,882
1506578896441,894
1506578896450,888
1506578896457,873
1506578896466,848
1506578896474,811
1506578896482,774
1506578896490,729
1506578896498,684
1506578896506,641
1506578896515,596
1506578896519,562
1506578896527,526
1506578896535,499
1506578896543,477
1506578896552,456
1506578896560,446
1506578896568,434
1506578896576,430
1506578896585,429
1506578896593,428
1506578896601,435
1506578896609,440
1506578896617,450
1506578896626,461
1506578896634,470
1506578896642,484
1506578896650,493
1506578896658,504
1506578896667,514
1506578896675,518
1506578896679,526
1506578896687,528
1506578896695,528
1506578896703,527
1506578896712,520
1506578896720,516
1506578896728,505
1506578896736,496
1506578896744,487
1506578896753,473
1506578896761,465
1506578896769,452
1506578896777,444
1506578896785,436
1506578896794,427
1506578896802,423
1506578896810,417
1506578896818,414
1506578896826,413
1506578896834,408
1506578896838,411
1506578896847,408
1506578896855,409
1506578896863,412
1506578896871,410
1506578896879,415
1506578896888,415
1506578896896,417
1506578896904,421
1506578896912,421
1506578896920,427
1506578896929,425
1506578896937,429
1506578896945,432
1506578896953,431
1506578896961,436
1506578896970,435
1506578896978,436
1506578896986,439
1506578896994,437
1506578896998,439
1506578897006,437
1506578897014,436
1506578897023,436
1506578897031,432
1506578897039,433
1506578897047,429
1506578897055,426
1506578897064,426
1506578897072,421
1506578897080,424
1506578897088,425
1506578897096,433
1506578897105,450
1506578897113,470
1506578897121,505
1506578897130,544
1506578897137,593
1506578897145,649
1506578897154,700
1506578897158,755
1506578897166,802
1506578897174,839
1506578897182,869
1506578897190,885
1506578897199,890
1506578897207,879
1506578897215,859
1506578897223,832
1506578897231,793
1506578897239,754
1506578897247,709
1506578897255,665
1506578897264,625
1506578897272,583
1506578897280,551
1506578897288,520
1506578897297,494
1506578897306,474
1506578897314,456
1506578897318,447
1506578897326,437
1506578897334,432
1506578897342,432
1506578897351,431
1506578897359,436
1506578897367,441
1506578897375,447
1506578897383,458
1506578897392,465
1506578897400,477
1506578897408,484
1506578897416,493
1506578897424,502
1506578897432,505
1506578897441,511
1506578897449,511
1506578897457,511
1506578897465,510
1506578897473,503
1506578897481,500
1506578897486,491
1506578897494,482
1506578897502,475
1506578897510,464
1506578897518,456
1506578897527,445
1506578897535,436
1506578897543,430
1506578897551,420
1506578897559,415
1506578897568,409
1506578897576,404
1506578897584,404
1506578897592,399
1506578897600,401
1506578897609,400
1506578897617,401
1506578897625,404
1506578897633,403
1506578897641,408
1506578897645,409
1506578897653,411
1506578897662,415
1506578897670,414
1506578897678,420
1506578897686,421
1506578897694,422
1506578897703,426
1506578897711,425
1506578897719,429
1506578897727,430
1506578897735,431
1506578897744,433
1506578897752,431
1506578897760,434
1506578897768,434
1506578897776,433
1506578897784,435
1506578897793,432
1506578897801,434
1506578897805,431
1506578897813,428
1506578897821,429
1506578897829,423
1506578897838,424
1506578897846,420
1506578897854,418
1506578897862,419
1506578897870,417
1506578897879,425
1506578897887,437
1506578897895,457
1506578897903,490
1506578897911,525
1506578897920,575
1506578897928,629
1506578897936,685
1506578897944,743
1506578897952,793
1506578897960,840
1506578897964,874
1506578897973,894
1506578897981,904
1506578897990,898
1506578897998,883
1506578898006,856
1506578898014,821
1506578898022,784
1506578898031,737
1506578898039,694
1506578898047,650
1506578898055,607
1506578898063,572
1506578898071,536
1506578898080,511
1506578898088,486
1506578898096,468
1506578898104,457
1506578898112,445
1506578898120,441
1506578898125,437
1506578898133,435
1506578898141,439
1506578898149,441
1506578898157,450
1506578898165,457
1506578898173,464
1506578898181,475
1506578898190,480
1506578898198,491
1506578898206,499
1506578898214,504
1506578898222,511
1506578898231,511
1506578898239,513
1506578898247,512
1506578898256,508
1506578898263,504
1506578898271,495
1506578898280,490
1506578898284,481
1506578898292,470
1506578898300,464
1506578898308,452
1506578898317,446
1506578898325,437
1506578898333,428
1506578898341,423
1506578898350,415
1506578898358,413
1506578898366,407
1506578898374,404
1506578898382,405
1506578898390,400
1506578898398,403
1506578898406,402
1506578898415,402
1506578898423,407
1506578898431,405
1506578898439,409
1506578898444,411
1506578898452,412
1506578898460,417
1506578898468,416
1506578898476,422
1506578898484,423
1506578898492,424
1506578898501,428
1506578898509,427
1506578898517,430
1506578898525,430
1506578898534,430
1506578898542,433
1506578898550,431
1506578898559,433
1506578898567,432
1506578898575,431
1506578898583,433
1506578898591,429
1506578898599,431
1506578898604,430
1506578898612,426
1506578898620,427
1506578898629,421
1506578898637,420
1506578898645,417
1506578898653,414
1506578898661,415
1506578898669,411
1506578898678,417
1506578898686,423
1506578898694,437
1506578898702,464
1506578898710,493
1506578898719,536
1506578898727,585
1506578898735,638
1506578898743,697
1506578898751,751
1506578898759,801
1506578898764,844
1506578898772,874
1506578898780,895
1506578898788,898
1506578898796,891
1506578898805,873
1506578898813,841
1506578898821,808
1506578898829,764
1506578898837,719
1506578898846,674
1506578898854,627
1506578898862,588
1506578898870,548
1506578898878,517
1506578898886,489
1506578898895,465
1506578898903,450
1506578898911,436
1506578898919,429
1506578898927,425
1506578898932,422
1506578898940,427
1506578898948,430
1506578898956,438
1506578898965,447
1506578898972,456
1506578898981,470
1506578898989,479
1506578898997,492
1506578899005,502
1506578899013,508
1506578899021,517
1506578899030,518
1506578899038,522
1506578899046,521
1506578899054,516
1506578899063,514
1506578899071,505
1506578899079,499
1506578899087,491
1506578899091,480
1506578899099,474
1506578899108,461
1506578899116,452
1506578899124,444
1506578899132,434
1506578899141,430
1506578899148,420
1506578899157,416
1506578899165,412
1506578899173,408
1506578899181,408
1506578899189,404
1506578899198,406
1506578899206,407
1506578899214,407
1506578899222,411
1506578899230,411
1506578899238,414
1506578899247,417
1506578899251,419
1506578899259,423
1506578899267,424
1506578899275,428
1506578899284,431
1506578899292,431
1506578899300,436
1506578899308,435
1506578899316,438
1506578899324,440
1506578899333,439
1506578899341,442
1506578899349,440
1506578899357,441
1506578899365,442
1506578899374,439
1506578899382,442
1506578899390,437
1506578899398,438
1506578899406,437
1506578899410,433
1506578899418,434
1506578899427,430
1506578899435,429
1506578899443,428
1506578899451,427
1506578899459,435
1506578899468,442
1506578899476,463
1506578899484,491
1506578899492,525
1506578899500,573
1506578899509,621
1506578899517,676
1506578899525,732
1506578899533,782
1506578899541,827
1506578899549,859
1506578899558,882
1506578899566,891
1506578899570,887
1506578899578,875
1506578899586,847
1506578899594,814
1506578899603,776
1506578899611,730
1506578899620,689
1506578899628,642
1506578899636,601
1506578899644,563
1506578899652,529
1506578899660,504
1506578899669,478
1506578899677,461
1506578899685,450
1506578899693,438
1506578899701,436
1506578899710,432
1506578899718,433
1506578899725,438
1506578899730,441
1506578899738,452
1506578899746,459
1506578899754,470
1506578899762,481
1506578899770,489
1506578899779,500
1506578899787,505
1506578899795,513
1506578899803,519
1506578899812,518
1506578899820,522
1506578899828,518
1506578899836,514
1506578899844,511
1506578899852,501
1506578899861,495
1506578899869,484
1506578899877,475
1506578899885,465
1506578899889,453
1506578899897,446
1506578899906,435
1506578899914,428
1506578899923,423
1506578899931,414
1506578899939,412
1506578899947,407
1506578899955,405
1506578899963,404
1506578899972,402
1506578899980,404
1506578899988,403
1506578899996,406
1506578900004,409
1506578900013,409
1506578900021,415
1506578900029,416
1506578900037,419
1506578900045,423
1506578900049,423
1506578900058,428
1506578900066,427
1506578900074,430
1506578900082,433
1506578900090,433
1506578900098,438
1506578900107,435
1506578900115,437
1506578900123,439
1506578900131,435
1506578900139,437
1506578900147,435
1506578900155,434
1506578900163,433
1506578900172,430
1506578900181,430
1506578900189,426
1506578900197,425
1506578900205,424
1506578900209,420
1506578900218,424
1506578900226,427
1506578900234,438
1506578900242,457
1506578900250,481
1506578900259,518
1506578900267,561
1506578900275,610
1506578900283,667
1506578900291,719
1506578900300,773
1506578900308,814
1506578900316,849
1506578900324,873
1506578900332,881
1506578900340,881
1506578900349,865
1506578900357,842
1506578900365,810
1506578900369,771
1506578900377,732
1506578900386,686
1506578900394,645
1506578900402,607
1506578900410,568
1506578900418,539
1506578900426,511
1506578900435,488
1506578900443,473
1506578900451,456
1506578900459,450
1506578900467,442
1506578900475,438
1506578900484,439
1506578900492,438
1506578900500,444
1506578900508,448
1506578900516,455
1506578900525,463
1506578900529,469
1506578900537,480
1506578900545,486
1506578900553,495
1506578900561,503
1506578900570,505
1506578900578,511
1506578900586,510
1506578900594,509
1506578900602,509
1506578900611,501
1506578900619,499
1506578900627,490
1506578900635,483
1506578900643,476
1506578900651,465
1506578900660,458
1506578900668,447
1506578900676,439
1506578900684,432
1506578900692,423
1506578900696,420
1506578900705,413
1506578900713,409
1506578900721,408
1506578900729,404
1506578900737,406
1506578900746,405
1506578900754,405
1506578900762,408
1506578900770,407
1506578900778,412
1506578900787,413
1506578900795,415
1506578900803,419
1506578900811,418
1506578900819,423
1506578900828,424
1506578900836,426
1506578900844,429
1506578900852,428
1506578900857,431
1506578900865,431
1506578900873,433
1506578900881,435
1506578900890,433
1506578900898,436
1506578900906,436
1506578900914,435
1506578900922,437
1506578900930,433
1506578900939,435
1506578900947,432
1506578900955,429
1506578900963,428
1506578900971,424
1506578900979,424
1506578900988,420
1506578900996,419
1506578901004,422
1506578901012,425
1506578901016,440
1506578901024,457
1506578901033,484
1506578901041,523
1506578901049,567
1506578901057,621
1506578901065,675
1506578901074,728
1506578901082,780
1506578901090,820
1506578901098,855
1506578901106,874
1506578901114,882
1506578901123,881
1506578901131,862
1506578901139,840
1506578901147,807
1506578901155,767
1506578901164,726
1506578901172,681
1506578901176,641
1506578901184,600
1506578901192,564
1506578901200,536
1506578901209,507
1506578901217,488
1506578901225,469
1506578901233,456
1506578901241,449
1506578901249,441
1506578901257,439
1506578901265,438
1506578901274,439
1506578901282,445
1506578901290,445
1506578901298,455
1506578901306,460
1506578901314,468
1506578901323,479
1506578901331,484
1506578901335,492
1506578901344,497
1506578901352,501
1506578901360,505
1506578901369,504
1506578901376,505
1506578901385,502
1506578901393,497
1506578901401,494
1506578901409,485
1506578901417,480
1506578901425,471
1506578901434,461
1506578901442,455
1506578901450,445
1506578901458,438
1506578901466,431
1506578901475,424
1506578901483,419
1506578901491,412
1506578901495,411
1506578901503,408
1506578901512,405
1506578901520,407
1506578901528,404
1506578901536,407
1506578901545,407
1506578901553,408
1506578901561,412
1506578901569,412
1506578901577,415
1506578901586,417
1506578901594,418
1506578901602,422
1506578901610,420
1506578901618,425
1506578901627,425
1506578901635,424
1506578901643,428
1506578901651,425
1506578901655,430
1506578901663,428
1506578901672,428
1506578901680,432
1506578901688,429
1506578901696,431
1506578901704,431
1506578901712,430
1506578901721,431
1506578901729,428
1506578901737,428
1506578901745,426
1506578901753,423
1506578901762,424
1506578901770,419
1506578901778,420
1506578901786,419
1506578901794,420
1506578901803,430
1506578901811,440
1506578901815,465
1506578901823,494
1506578901831,532
1506578901839,581
1506578901848,630
1506578901856,685
1506578901864,735
1506578901872,781
1506578901880,823
1506578901889,848
1506578901897,865
1506578901905,869
1506578901913,859
1506578901921,843
1506578901929,812
1506578901938,780
1506578901946,739
1506578901954,695
1506578901962,655
1506578901970,611
1506578901974,573
1506578901983,539
1506578901991,508
1506578901999,485
1506578902007,463
1506578902015,449
1506578902024,437
1506578902032,430
1506578902040,428
1506578902048,424
1506578902056,430
1506578902064,434
1506578902073,440
1506578902081,451
1506578902089,458
1506578902097,471
1506578902105,480
1506578902114,489
1506578902122,501
1506578902130,507
1506578902138,513
1506578902142,516
1506578902150,517
1506578902159,519
1506578902167,514
1506578902175,512
1506578902183,505
1506578902191,496
1506578902200,490
1506578902208,478
1506578902216,470
1506578902224,460
1506578902233,451
1506578902241,445
1506578902249,433
1506578902257,427
1506578902266,422
1506578902274,415
1506578902282,414
1506578902290,408
1506578902298,408
1506578902302,408
1506578902311,406
1506578902319,410
1506578902327,409
1506578902335,413
1506578902343,416
1506578902352,418
1506578902360,423
1506578902368,424
1506578902376,429
1506578902384,432
1506578902393,433
1506578902401,438
1506578902408,438
1506578902416,441
1506578902425,443
1506578902433,444
1506578902441,447
1506578902449,444
1506578902457,447
1506578902462,448
1506578902470,446
1506578902478,448
1506578902487,445
1506578902495,444
1506578902502,442
1506578902511,438
1506578902519,438
1506578902527,433
1506578902535,432
1506578902543,429
1506578902552,429
1506578902560,437
1506578902568,446
1506578902576,467
1506578902584,495
1506578902593,529
1506578902601,577
1506578902609,624
1506578902617,677
1506578902621,729
1506578902629,774
1506578902637,815
1506578902646,843
1506578902654,861
1506578902662,868
1506578902670,860
1506578902678,846
1506578902687,817
1506578902695,786
1506578902703,749
1506578902712,707
1506578902720,668
1506578902728,624
1506578902736,589
1506578902744,557
1506578902753,526
1506578902761,505
1506578902769,482
1506578902777,467
1506578902781,457
1506578902789,446
1506578902798,442
1506578902806,438
1506578902814,438
1506578902822,440
1506578902830,443
1506578902839,450
1506578902847,455
1506578902855,464
1506578902863,473
1506578902871,480
1506578902879,491
1506578902888,495
1506578902896,501
1506578902905,506
1506578902913,506
1506578902921,510
1506578902929,504
1506578902937,503
1506578902941,497
1506578902949,490
1506578902958,485
1506578902966,474
1506578902974,466
1506578902982,458
1506578902990,446
1506578902999,440
1506578903007,430
1506578903015,422
1506578903023,417
1506578903031,410
1506578903040,410
1506578903048,405
1506578903056,405
1506578903064,405
1506578903072,403
1506578903081,407
1506578903089,405
1506578903097,409
1506578903101,411
1506578903109,411
1506578903117,416
1506578903125,415
1506578903134,418
1506578903142,421
1506578903150,422
1506578903158,427
1506578903166,426
1506578903175,429
1506578903183,431
1506578903191,430
1506578903199,434
1506578903208,432
1506578903216,433
1506578903224,435
1506578903232,433
1506578903240,435
1506578903248,432
1506578903256,432
1506578903261,432
1506578903269,428
1506578903277,429
1506578903285,425
1506578903293,422
1506578903302,422
1506578903310,418
1506578903318,421
1506578903326,423
1506578903334,433
1506578903342,450
1506578903351,472
1506578903359,507
1506578903367,547
1506578903375,596
1506578903383,649
1506578903392,699
1506578903400,753
1506578903408,795
1506578903416,830
1506578903420,857
1506578903428,867
1506578903437,870
1506578903445,856
1506578903453,837
1506578903461,810
1506578903469,772
1506578903477,736
1506578903486,692
1506578903494,651
1506578903502,614
1506578903510,577
1506578903518,548
1506578903527,519
1506578903535,498
1506578903543,480
1506578903551,463
1506578903559,454
1506578903568,445
1506578903576,440
1506578903580,439
1506578903589,436
1506578903597,441
1506578903605,444
1506578903613,449
1506578903621,458
1506578903629,464
1506578903638,475
1506578903646,481
1506578903654,490
1506578903662,498
1506578903670,501
1506578903679,508
1506578903687,508
1506578903695,509
1506578903703,510
1506578903711,504
1506578903719,501
1506578903728,494
1506578903736,487
1506578903744,479
1506578903748,468
1506578903756,461
1506578903764,451
1506578903773,443
1506578903781,436
1506578903789,426
1506578903797,423
1506578903805,415
1506578903814,412
1506578903822,410
1506578903830,405
1506578903838,406
1506578903846,404
1506578903855,404
1506578903863,407
1506578903871,405
1506578903879,410
1506578903887,411
1506578903895,412
1506578903903,416
1506578903908,416
1506578903916,420
1506578903924,421
1506578903932,422
1506578903940,425
1506578903949,425
1506578903957,430
1506578903965,429
1506578903973,432
1506578903981,437
1506578903990,435
1506578903998,440
1506578904006,441
1506578904014,441
1506578904022,443
1506578904031,442
1506578904039,444
1506578904047,440
1506578904055,438
1506578904063,438
1506578904068,432
1506578904075,432
1506578904084,428
1506578904092,425
1506578904100,424
1506578904108,418
1506578904116,419
1506578904125,419
1506578904133,420
1506578904141,429
1506578904149,441
1506578904157,467
1506578904166,497
1506578904174,536
1506578904182,586
1506578904190,634
1506578904198,689
1506578904207,739
1506578904215,783
1506578904223,821
1506578904227,844
1506578904235,861
1506578904243,863
1506578904252,853
1506578904260,835
1506578904268,805
1506578904276,774
1506578904284,735
1506578904293,693
1506578904301,655
1506578904309,614
1506578904317,581
1506578904326,549
1506578904334,522
1506578904342,501
1506578904350,480
1506578904359,468
1506578904367,457
1506578904375,449
1506578904383,447
1506578904387,442
1506578904395,445
1506578904403,446
1506578904412,450
1506578904420,457
1506578904428,462
1506578904436,471
1506578904444,476
1506578904453,483
1506578904461,491
1506578904469,494
1506578904477,501
1506578904485,504
1506578904494,505
1506578904502,507
1506578904510,502
1506578904518,500
1506578904526,494
1506578904534,488
1506578904543,483
1506578904547,473
1506578904555,468
1506578904563,458
1506578904571,450
1506578904579,445
1506578904588,434
1506578904596,429
1506578904604,423
1506578904612,417
1506578904620,415
1506578904629,410
1506578904637,410
1506578904645,407
1506578904653,406
1506578904661,409
1506578904670,407
1506578904678,412
1506578904686,412
1506578904694,414
1506578904702,419
1506578904706,418
1506578904715,423
1506578904723,425
1506578904731,426
1506578904739,430
1506578904748,429
1506578904755,434
1506578904764,435
1506578904772,434
1506578904780,436
1506578904788,434
1506578904796,437
1506578904805,437
1506578904813,436
1506578904821,438
1506578904829,434
1506578904837,436
1506578904845,434
1506578904854,432
1506578904862,433
1506578904866,429
1506578904874,431
1506578904882,429
1506578904891,427
1506578904899,428
1506578904907,424
1506578904915,424
1506578904923,421
1506578904931,419
1506578904940,419
1506578904948,415
1506578904956,419
1506578904964,422
1506578904973,430
1506578904981,448
1506578904989,469
1506578904997,505
1506578905006,545
1506578905014,591
1506578905022,646
1506578905026,696
1506578905034,747
1506578905043,792
1506578905051,826
1506578905059,854
1506578905067,864
1506578905075,868
1506578905083,857
1506578905092,835
1506578905100,808
1506578905108,769
1506578905116,730
1506578905124,688
1506578905132,644
1506578905141,605
1506578905149,565
1506578905157,535
1506578905165,506
1506578905173,482
1506578905182,465
1506578905186,448
1506578905194,442
1506578905202,433
1506578905210,430
1506578905218,432
1506578905227,433
1506578905235,440
1506578905243,447
1506578905251,456
1506578905260,469
1506578905268,476
1506578905276,489
1506578905284,498
1506578905292,504
1506578905300,514
1506578905309,516
1506578905317,521
1506578905325,521
1506578905333,520
1506578905341,519
1506578905345,511
1506578905354,506
1506578905362,499
1506578905370,490
1506578905378,482
1506578905386,470
1506578905394,462
1506578905403,452
1506578905411,443
1506578905419,438
1506578905427,429
1506578905436,425
1506578905444,422
1506578905452,417
1506578905460,418
1506578905468,415
1506578905476,417
1506578905485,416
1506578905493,416
1506578905501,420
1506578905509,419
1506578905513,423
1506578905521,425
1506578905529,425
1506578905538,429
1506578905546,428
1506578905554,432
1506578905562,433
1506578905570,433
1506578905579,436
1506578905587,435
1506578905595,437
1506578905603,437
1506578905612,437
1506578905620,439
1506578905628,437
1506578905636,440
1506578905644,439
1506578905652,438
1506578905660,440
1506578905669,437
1506578905673,438
1506578905681,437
1506578905689,435
1506578905697,435
1506578905706,432
1506578905714,431
1506578905722,429
1506578905731,425
1506578905739,426
1506578905747,421
1506578905755,422
1506578905763,424
1506578905771,427
1506578905780,442
1506578905788,458
1506578905796,487
1506578905804,522
1506578905812,563
1506578905821,615
1506578905829,664
1506578905833,716
1506578905841,765
1506578905849,803
1506578905857,837
1506578905866,856
1506578905874,867
1506578905882,865
1506578905890,850
1506578905898,831
1506578905907,798
1506578905915,763
1506578905923,723
1506578905931,680
1506578905939,643
1506578905948,602
1506578905956,568
1506578905964,538
1506578905972,510
1506578905980,490
1506578905988,470
1506578905992,457
1506578906001,448
1506578906009,439
1506578906017,438
1506578906025,434
1506578906033,437
1506578906042,442
1506578906050,446
1506578906058,456
1506578906066,463
1506578906074,473
1506578906082,483
1506578906091,490
1506578906099,501
1506578906107,505
1506578906115,512
1506578906123,516
1506578906132,515
1506578906140,519
1506578906148,514
1506578906152,510
1506578906160,505
1506578906168,494
1506578906177,488
1506578906185,476
1506578906193,467
1506578906201,458
1506578906209,447
1506578906218,442
1506578906226,431
1506578906234,426
1506578906242,422
1506578906250,414
1506578906259,414
1506578906267,408
1506578906275,408
1506578906283,408
1506578906291,406
1506578906299,410
1506578906308,408
1506578906312,412
1506578906320,414
1506578906328,414
1506578906336,420
1506578906344,419
1506578906353,423
1506578906361,427
1506578906370,426
1506578906378,431
1506578906386,431
1506578906394,433
1506578906402,435
1506578906410,433
1506578906419,437
1506578906427,435
1506578906435,436
1506578906443,436
1506578906451,433
1506578906460,436
1506578906468,433
1506578906472,434
1506578906480,434
1506578906488,431
1506578906496,432
1506578906505,430
1506578906513,430
1506578906521,430
1506578906529,426
1506578906537,429
1506578906545,424
1506578906554,423
1506578906562,423
1506578906570,420
1506578906578,421
1506578906586,418
1506578906595,420
1506578906603,425
1506578906611,432
1506578906619,453
1506578906627,475
1506578906632,509
1506578906640,552
1506578906648,597
1506578906656,654
1506578906664,706
1506578906672,757
1506578906681,804
1506578906689,839
1506578906697,869
1506578906705,881
1506578906713,884
1506578906721,876
1506578906730,855
1506578906738,831
1506578906746,794
1506578906754,756
1506578906762,716
1506578906771,672
1506578906779,634
1506578906787,595
1506578906791,562
1506578906799,535
1506578906808,509
1506578906816,493
1506578906824,475
1506578906832,463
1506578906840,457
1506578906848,449
1506578906857,448
1506578906865,446
1506578906873,449
1506578906881,454
1506578906889,457
1506578906897,465
1506578906906,471
1506578906914,480
1506578906922,489
1506578906930,494
1506578906939,504
1506578906947,507
1506578906955,510
1506578906959,515
1506578906967,513
1506578906975,514
1506578906983,509
1506578906992,506
1506578907000,500
1506578907008,490
1506578907016,485
1506578907024,475
1506578907033,467
1506578907041,461
1506578907049,450
1506578907057,444
1506578907066,435
1506578907074,429
1506578907082,425
1506578907090,418
1506578907098,416
1506578907107,412
1506578907115,411
1506578907119,412
1506578907127,409
1506578907135,413
1506578907144,412
1506578907152,413
1506578907160,418
1506578907168,417
1506578907176,423
1506578907184,423
1506578907193,426
1506578907201,429
1506578907209,428
1506578907217,431
1506578907225,431
1506578907234,432
1506578907242,433
1506578907250,431
1506578907258,434
1506578907266,432
1506578907274,432
1506578907279,434
1506578907287,432
1506578907295,434
1506578907303,431
1506578907311,431
1506578907320,433
1506578907328,430
1506578907336,433
1506578907344,430
1506578907352,428
1506578907360,429
1506578907369,425
1506578907377,426
1506578907385,423
1506578907393,421
1506578907401,420
1506578907410,416
1506578907418,417
1506578907426,414
1506578907434,415
1506578907438,425
1506578907447,434
1506578907455,456
1506578907463,485
1506578907471,521
1506578907479,568
1506578907488,616
1506578907496,672
1506578907504,724
1506578907512,772
1506578907520,815
1506578907528,843
1506578907536,867
1506578907545,874
1506578907553,871
1506578907561,859
1506578907569,832
1506578907577,802
1506578907586,764
1506578907594,722
1506578907598,682
1506578907606,637
1506578907614,600
1506578907622,562
1506578907631,530
1506578907639,505
1506578907647,479
1506578907655,463
1506578907663,448
1506578907672,438
1506578907680,434
1506578907688,428
1506578907696,433
1506578907704,434
1506578907712,440
1506578907721,450
1506578907729,456
1506578907737,467
1506578907746,477
1506578907754,486
1506578907758,498
1506578907766,504
1506578907774,512
1506578907783,517
1506578907791,519
1506578907799,523
1506578907807,520
1506578907815,519
1506578907823,514
1506578907832,507
1506578907840,501
1506578907848,490
1506578907856,483
1506578907864,472
1506578907873,462
1506578907881,455
1506578907889,443
1506578907897,438
1506578907905,430
1506578907913,424
1506578907918,421
1506578907926,414
1506578907934,414
1506578907942,411
1506578907951,410
1506578907959,412
1506578907967,410
1506578907975,414
1506578907983,415
1506578907991,417
1506578907999,421
1506578908008,421
1506578908016,427
1506578908024,429
1506578908032,430
1506578908040,435
1506578908049,434
1506578908057,439
1506578908065,440
1506578908073,440
1506578908077,443
1506578908085,442
1506578908094,444
1506578908102,443
1506578908110,442
1506578908118,444
1506578908127,441
1506578908135,443
1506578908143,443
1506578908151,441
1506578908159,442
1506578908167,439
1506578908175,438
1506578908184,436
1506578908192,433
1506578908200,433
1506578908208,429
1506578908216,428
1506578908225,425
1506578908233,422
1506578908237,425
1506578908245,424
1506578908253,431
1506578908262,444
1506578908270,463
1506578908278,494
1506578908286,528
1506578908294,575
1506578908302,624
1506578908311,675
1506578908319,729
1506578908327,773
1506578908335,816
1506578908343,847
1506578908351,864
1506578908360,875
1506578908368,868
1506578908376,853
1506578908384,828
1506578908392,794
1506578908396,759
1506578908405,715
1506578908413,673
1506578908421,631
1506578908430,590
1506578908438,558
1506578908446,522
1506578908454,497
1506578908462,475
1506578908471,456
1506578908479,446
1506578908487,435
1506578908495,433
1506578908503,432
1506578908512,433
1506578908520,441
1506578908528,446
1506578908536,456
1506578908544,467
1506578908552,477
1506578908561,491
1506578908565,499
1506578908573,511
1506578908581,518
1506578908589,525
1506578908597,531
1506578908606,530
1506578908614,533
1506578908622,528
1506578908630,523
1506578908638,518
1506578908647,507
1506578908655,498
1506578908663,489
1506578908672,477
1506578908679,468
1506578908688,456
1506578908696,448
1506578908704,440
1506578908712,431
1506578908720,428
1506578908724,420
1506578908733,418
1506578908741,415
1506578908749,411
1506578908757,412
1506578908765,409
1506578908774,411
1506578908782,412
1506578908790,412
1506578908798,417
1506578908806,417
1506578908814,421
1506578908823,423
1506578908831,424
1506578908839,429
1506578908847,429
1506578908855,433
1506578908864,435
1506578908872,435
1506578908880,439
1506578908884,438
1506578908892,440
1506578908900,441
1506578908909,440
1506578908917,443
1506578908925,441
1506578908933,442
1506578908941,443
1506578908949,441
1506578908958,442
1506578908966,438
1506578908974,438
1506578908982,436
1506578908990,433
1506578908999,433
1506578909007,428
1506578909015,429
1506578909023,428
1506578909031,426
1506578909039,435
1506578909044,442
1506578909052,463
1506578909060,490
1506578909068,523
1506578909076,570
1506578909084,617
1506578909093,670
1506578909101,725
1506578909110,772
1506578909118,817
1506578909126,848
1506578909134,872
1506578909142,883
1506578909150,881
1506578909159,871
1506578909167,845
1506578909175,817
1506578909183,782
1506578909192,739
1506578909199,700
1506578909204,655
1506578909212,615
1506578909220,579
1506578909229,544
1506578909236,518
1506578909245,493
1506578909253,474
1506578909261,459
1506578909269,446
1506578909278,442
1506578909286,435
1506578909294,436
1506578909302,439
1506578909310,441
1506578909318,450
1506578909327,456
1506578909335,466
1506578909343,476
1506578909351,484
1506578909359,497
1506578909363,502
1506578909372,511
1506578909380,517
1506578909388,519
1506578909396,524
1506578909404,521
1506578909412,519
1506578909421,516
1506578909429,508
1506578909437,503
1506578909445,492
1506578909453,484
1506578909462,478
1506578909470,465
1506578909478,458
1506578909486,447
1506578909494,440
1506578909502,434
1506578909511,426
1506578909519,424
1506578909523,418
1506578909531,415
1506578909539,414
1506578909548,411
1506578909556,415
1506578909564,413
1506578909572,415
1506578909580,417
1506578909589,416
1506578909597,422
1506578909605,422
1506578909613,425
1506578909621,428
1506578909629,427
1506578909637,431
1506578909646,431
1506578909654,433
1506578909662,435
1506578909670,434
1506578909678,437
1506578909683,436
1506578909691,437
1506578909699,439
1506578909707,436
1506578909715,439
1506578909723,436
1506578909731,437
1506578909740,437
1506578909749,435
1506578909757,437
1506578909765,436
1506578909773,435
1506578909781,434
1506578909790,430
1506578909798,431
1506578909806,427
