time,value
1506576487215,472
1506576487223,474
1506576487232,480
1506576487240,486
1506576487248,491
1506576487256,498
1506576487264,503
1506576487273,507
1506576487281,512
1506576487289,513
1506576487297,518
1506576487306,518
1506576487314,519
1506576487322,518
1506576487330,515
1506576487338,514
1506576487347,510
1506576487355,508
1506576487363,504
1506576487367,499
1506576487375,496
1506576487383,492
1506576487392,490
1506576487400,487
1506576487408,483
1506576487416,484
1506576487424,481
1506576487432,481
1506576487441,481
1506576487449,479
1506576487457,480
1506576487465,480
1506576487473,481
1506576487482,481
1506576487490,482
1506576487498,484
1506576487506,484
1506576487514,487
1506576487522,488
1506576487527,489
1506576487535,491
1506576487543,490
1506576487551,491
1506576487559,493
1506576487568,493
1506576487576,496
1506576487584,497
1506576487592,500
1506576487600,501
1506576487608,502
1506576487617,506
1506576487625,505
1506576487633,505
1506576487641,506
1506576487649,505
1506576487658,507
1506576487666,509
1506576487674,514
1506576487682,524
1506576487690,535
1506576487694,552
1506576487703,567
1506576487711,587
1506576487719,607
1506576487727,622
1506576487735,639
1506576487744,649
1506576487752,656
1506576487760,658
1506576487768,654
1506576487776,647
1506576487784,635
1506576487793,621
1506576487801,605
1506576487809,586
1506576487817,569
1506576487825,550
1506576487834,536
1506576487842,521
1506576487850,506
1506576487854,496
1506576487862,487
1506576487871,481
1506576487879,477
1506576487887,473
1506576487895,472
1506576487903,471
1506576487911,471
1506576487920,473
1506576487928,474
1506576487936,480
1506576487944,483
1506576487952,488
1506576487961,495
1506576487969,499
1506576487977,505
1506576487985,509
1506576487994,514
1506576488002,518
1506576488010,519
1506576488014,521
1506576488022,521
1506576488031,519
1506576488039,518
1506576488047,514
1506576488055,512
1506576488063,508
1506576488072,503
1506576488080,499
1506576488088,494
1506576488096,490
1506576488104,484
1506576488112,480
1506576488120,477
1506576488129,472
1506576488137,472
1506576488145,469
1506576488153,468
1506576488161,468
1506576488170,466
1506576488174,467
1506576488182,467
1506576488190,467
1506576488198,468
1506576488206,469
1506576488215,470
1506576488223,470
1506576488231,471
1506576488239,474
1506576488247,472
1506576488256,473
1506576488264,473
1506576488272,474
1506576488280,477
1506576488288,476
1506576488297,477
1506576488305,476
1506576488313,478
1506576488321,481
1506576488329,481
1506576488333,484
1506576488342,486
1506576488350,487
1506576488358,490
1506576488366,490
1506576488374,492
1506576488382,493
1506576488391,494
1506576488399,496
1506576488407,496
1506576488415,498
1506576488423,499
1506576488432,500
1506576488440,504
1506576488448,508
1506576488456,517
1506576488464,529
1506576488473,542
1506576488481,560
1506576488489,577
1506576488493,596
1506576488501,613
1506576488510,627
1506576488518,638
1506576488526,642
1506576488534,646
1506576488542,642
1506576488550,633
1506576488558,623
1506576488567,606
1506576488575,588
1506576488583,568
1506576488591,549
1506576488599,532
1506576488608,513
1506576488616,498
1506576488624,484
1506576488632,473
1506576488640,466
1506576488649,458
1506576488653,456
1506576488661,453
1506576488670,452
1506576488678,454
1506576488686,455
1506576488694,460
1506576488702,464
1506576488711,469
1506576488719,476
1506576488727,481
1506576488735,489
1506576488743,495
1506576488751,501
1506576488759,508
1506576488768,509
1506576488776,514
1506576488784,515
1506576488792,516
1506576488800,516
1506576488808,513
1506576488813,513
1506576488821,509
1506576488829,505
1506576488837,503
1506576488845,496
1506576488854,494
1506576488862,490
1506576488870,485
1506576488878,482
1506576488886,477
1506576488894,475
1506576488903,472
1506576488911,471
1506576488919,471
1506576488927,468
1506576488935,470
1506576488944,471
1506576488952,471
1506576488960,475
1506576488968,475
1506576488972,478
1506576488980,480
1506576488989,482
1506576488997,484
1506576489005,485
1506576489013,487
1506576489021,489
1506576489030,489
1506576489038,491
1506576489046,490
1506576489054,490
1506576489062,490
1506576489071,488
1506576489079,488
1506576489087,486
1506576489095,485
1506576489103,484
1506576489111,482
1506576489120,483
1506576489128,481
1506576489132,484
1506576489140,488
1506576489148,495
1506576489157,508
1506576489165,520
1506576489173,536
1506576489181,554
1506576489189,569
1506576489197,585
1506576489206,598
1506576489214,609
1506576489222,616
1506576489230,618
1506576489238,617
1506576489246,611
1506576489255,602
1506576489263,590
1506576489272,576
1506576489280,561
1506576489288,544
1506576489296,529
1506576489300,514
1506576489308,500
1506576489317,488
1506576489325,476
1506576489333,470
1506576489341,462
1506576489350,455
1506576489358,454
1506576489366,451
1506576489374,451
1506576489382,452
1506576489391,453
1506576489398,458
1506576489407,460
1506576489415,467
1506576489423,472
1506576489431,478
1506576489439,485
1506576489447,490
1506576489456,496
1506576489460,502
1506576489468,506
1506576489476,511
1506576489484,510
1506576489493,511
1506576489501,509
1506576489509,507
1506576489517,506
1506576489525,501
1506576489534,499
1506576489542,496
1506576489550,490
1506576489558,489
1506576489566,484
1506576489574,482
1506576489583,481
1506576489591,476
1506576489599,475
1506576489607,473
1506576489615,473
1506576489619,472
1506576489628,471
1506576489636,473
1506576489644,472
1506576489652,472
1506576489660,475
1506576489669,475
1506576489677,477
1506576489685,478
1506576489693,480
1506576489701,481
1506576489710,482
1506576489718,483
1506576489726,482
1506576489734,483
1506576489742,484
1506576489751,483
1506576489759,485
1506576489767,483
1506576489775,484
1506576489779,486
1506576489787,487
1506576489795,491
1506576489804,496
1506576489812,505
1506576489820,516
1506576489828,530
1506576489836,549
1506576489845,565
1506576489853,584
1506576489861,601
1506576489869,615
1506576489877,626
1506576489886,631
1506576489894,634
1506576489902,631
1506576489910,625
1506576489918,614
1506576489926,600
1506576489934,586
1506576489939,571
1506576489947,553
1506576489955,537
1506576489963,521
1506576489971,507
1506576489980,498
1506576489988,487
1506576489996,480
1506576490004,472
1506576490012,467
1506576490021,464
1506576490029,460
1506576490037,462
1506576490045,461
1506576490054,463
1506576490061,466
1506576490070,469
1506576490078,475
1506576490087,480
1506576490095,484
1506576490098,491
1506576490106,495
1506576490115,501
1506576490123,504
1506576490131,508
1506576490139,512
1506576490147,512
1506576490156,514
1506576490164,513
1506576490172,511
1506576490181,510
1506576490189,506
1506576490197,504
1506576490205,499
1506576490213,496
1506576490221,493
1506576490230,488
1506576490238,485
1506576490246,481
1506576490254,479
1506576490258,476
1506576490266,473
1506576490274,473
1506576490283,472
1506576490291,472
1506576490299,473
1506576490307,473
1506576490316,476
1506576490324,476
1506576490332,478
1506576490340,480
1506576490348,480
1506576490357,483
1506576490365,484
1506576490373,485
1506576490381,488
1506576490389,488
1506576490398,490
1506576490406,490
1506576490414,490
1506576490418,491
1506576490426,490
1506576490434,491
1506576490442,489
1506576490451,488
1506576490459,489
1506576490467,486
1506576490475,486
1506576490483,486
1506576490492,487
1506576490500,491
1506576490508,494
1506576490516,503
1506576490524,515
1506576490533,530
1506576490541,551
1506576490549,569
1506576490557,592
1506576490566,611
1506576490574,628
1506576490578,645
1506576490586,652
1506576490594,660
1506576490603,659
1506576490611,652
1506576490619,644
1506576490627,628
1506576490635,613
1506576490644,594
1506576490652,576
1506576490660,558
1506576490668,539
1506576490676,525
1506576490684,512
1506576490693,501
1506576490701,493
1506576490709,484
1506576490717,479
1506576490725,474
1506576490733,471
1506576490738,470
1506576490746,467
1506576490754,470
1506576490762,471
1506576490771,472
1506576490779,478
1506576490787,479
1506576490795,486
1506576490803,490
1506576490811,495
1506576490819,501
1506576490828,504
1506576490836,509
1506576490844,512
1506576490852,514
1506576490861,517
1506576490869,516
1506576490877,517
1506576490885,517
1506576490893,514
1506576490901,513
1506576490905,510
1506576490914,507
1506576490922,502
1506576490930,498
1506576490938,495
1506576490946,490
1506576490955,489
1506576490963,486
1506576490971,482
1506576490979,481
1506576490987,478
1506576490996,478
1506576491004,479
1506576491012,478
1506576491020,479
1506576491028,479
1506576491036,481
1506576491045,482
1506576491053,482
1506576491061,485
1506576491065,485
1506576491073,487
1506576491081,488
1506576491090,488
1506576491098,491
1506576491106,491
1506576491114,492
1506576491122,492
1506576491131,492
1506576491139,492
1506576491147,491
1506576491155,492
1506576491164,491
1506576491172,490
1506576491180,492
1506576491188,490
1506576491197,491
1506576491205,490
1506576491213,489
1506576491221,490
1506576491225,487
1506576491233,488
1506576491242,488
1506576491250,486
1506576491258,487
1506576491266,488
1506576491274,491
1506576491283,496
1506576491291,504
1506576491299,518
1506576491307,534
1506576491315,556
1506576491323,578
1506576491332,600
1506576491340,623
1506576491348,641
1506576491356,658
1506576491364,669
1506576491373,674
1506576491381,677
1506576491385,670
1506576491393,661
1506576491401,648
1506576491410,631
1506576491418,614
1506576491426,594
1506576491434,575
1506576491442,558
1506576491450,539
1506576491458,525
1506576491467,511
1506576491475,502
1506576491483,493
1506576491491,486
1506576491499,483
1506576491508,480
1506576491516,479
1506576491524,480
1506576491532,479
1506576491540,482
1506576491544,484
1506576491553,488
1506576491561,493
1506576491569,497
1506576491577,504
1506576491585,507
1506576491594,513
1506576491602,518
1506576491610,520
1506576491618,525
1506576491626,526
1506576491634,526
1506576491643,526
1506576491651,523
1506576491659,521
1506576491667,518
1506576491676,516
1506576491684,511
1506576491692,506
1506576491700,504
1506576491704,498
1506576491712,497
1506576491720,494
1506576491729,490
1506576491737,488
1506576491745,485
1506576491753,484
1506576491761,484
1506576491770,482
1506576491778,484
1506576491786,484
1506576491794,485
1506576491802,486
1506576491810,487
1506576491819,490
1506576491827,491
1506576491835,492
1506576491844,494
1506576491852,494
1506576491860,495
1506576491864,494
1506576491872,496
1506576491880,497
1506576491889,496
1506576491897,498
1506576491905,496
1506576491913,497
1506576491921,497
1506576491930,495
1506576491938,496
1506576491946,493
1506576491954,493
1506576491962,495
1506576491971,494
1506576491979,494
1506576491987,496
1506576491995,495
1506576492003,495
1506576492011,492
1506576492019,492
1506576492024,492
1506576492032,491
1506576492040,491
1506576492049,489
1506576492057,489
1506576492065,488
1506576492073,488
1506576492081,491
1506576492089,496
1506576492097,507
1506576492106,519
1506576492114,536
1506576492122,558
1506576492130,579
1506576492138,603
1506576492147,624
1506576492155,644
1506576492163,659
1506576492171,670
1506576492179,677
1506576492183,675
1506576492192,671
1506576492200,663
1506576492208,647
1506576492217,633
1506576492224,614
1506576492232,595
1506576492241,577
1506576492249,559
1506576492257,542
1506576492265,526
1506576492273,514
1506576492282,504
1506576492290,494
1506576492298,489
1506576492306,483
1506576492314,480
1506576492322,480
1506576492331,478
1506576492339,481
1506576492343,483
1506576492351,487
1506576492360,492
1506576492368,496
1506576492376,503
1506576492384,507
1506576492392,514
1506576492401,520
1506576492409,523
1506576492417,528
1506576492425,530
1506576492433,533
1506576492441,534
1506576492449,532
1506576492457,531
1506576492466,529
1506576492474,526
1506576492482,523
1506576492490,518
1506576492498,516
1506576492506,511
1506576492511,507
1506576492519,504
1506576492527,499
1506576492536,497
1506576492544,493
1506576492552,490
1506576492560,488
1506576492568,487
1506576492576,491
1506576492584,489
1506576492592,489
1506576492601,488
1506576492609,486
1506576492617,487
1506576492625,488
1506576492634,488
1506576492642,490
1506576492650,491
1506576492658,493
1506576492666,493
1506576492671,494
1506576492679,497
1506576492687,496
1506576492695,499
1506576492704,499
1506576492712,498
1506576492720,500
1506576492728,499
1506576492737,500
1506576492745,500
1506576492753,499
1506576492761,500
1506576492769,498
1506576492778,498
1506576492786,497
1506576492794,496
1506576492802,496
1506576492810,493
1506576492818,493
1506576492826,493
1506576492831,493
1506576492839,496
1506576492847,499
1506576492855,508
1506576492863,519
1506576492872,533
1506576492880,552
1506576492888,571
1506576492896,593
1506576492904,613
1506576492913,631
1506576492921,647
1506576492929,656
1506576492937,662
1506576492945,664
1506576492954,659
1506576492962,651
1506576492970,638
1506576492978,623
1506576492986,606
1506576492990,587
1506576492998,570
1506576493007,549
1506576493015,533
1506576493023,518
1506576493031,504
1506576493039,494
1506576493048,483
1506576493056,475
1506576493064,470
1506576493072,465
1506576493080,464
1506576493089,463
1506576493097,465
1506576493105,467
1506576493113,471
1506576493122,479
1506576493130,485
1506576493138,494
1506576493146,500
1506576493150,507
1506576493158,515
1506576493166,521
1506576493174,528
1506576493183,531
1506576493191,533
1506576493199,536
1506576493207,533
1506576493215,533
1506576493224,530
1506576493232,526
1506576493240,524
1506576493248,519
1506576493256,515
1506576493265,509
1506576493273,504
1506576493281,500
1506576493289,495
1506576493297,492
1506576493305,489
1506576493310,484
1506576493318,485
1506576493326,482
1506576493334,483
1506576493342,483
1506576493351,483
1506576493359,485
1506576493367,485
1506576493376,488
1506576493384,490
1506576493392,491
1506576493400,494
1506576493408,495
1506576493416,497
1506576493425,499
1506576493433,499
1506576493441,501
1506576493449,500
1506576493457,501
1506576493465,501
1506576493470,499
1506576493478,500
1506576493486,497
1506576493494,498
1506576493502,498
1506576493511,496
1506576493519,499
1506576493527,501
1506576493535,508
1506576493543,516
1506576493552,528
1506576493560,544
1506576493568,560
1506576493576,580
1506576493584,599
1506576493592,615
1506576493601,633
1506576493609,645
1506576493617,651
1506576493625,655
1506576493629,653
1506576493637,648
1506576493646,636
1506576493654,624
1506576493662,608
1506576493670,590
1506576493678,573
1506576493687,553
1506576493695,537
1506576493703,521
1506576493711,506
1506576493719,496
1506576493727,484
1506576493736,475
1506576493744,470
1506576493752,464
1506576493760,463
1506576493768,461
1506576493777,462
1506576493785,465
1506576493789,469
1506576493797,476
1506576493805,482
1506576493813,488
1506576493822,497
1506576493830,503
1506576493838,511
1506576493846,517
1506576493854,522
1506576493863,526
1506576493871,528
1506576493879,532
1506576493887,529
1506576493895,530
1506576493903,528
1506576493912,524
1506576493920,522
1506576493928,517
1506576493936,512
1506576493944,508
1506576493952,502
1506576493957,498
1506576493965,493
1506576493973,490
1506576493981,486
1506576493990,482
1506576493998,481
1506576494006,479
1506576494015,479
1506576494023,480
1506576494031,478
1506576494039,479
1506576494047,479
1506576494055,480
1506576494064,483
1506576494072,484
1506576494080,487
1506576494088,487
1506576494096,489
1506576494104,492
1506576494113,492
1506576494117,495
1506576494125,495
1506576494133,495
1506576494141,496
1506576494150,495
1506576494158,497
1506576494166,496
1506576494174,499
1506576494182,504
1506576494191,510
1506576494199,523
1506576494207,536
1506576494215,553
1506576494223,574
1506576494231,593
1506576494240,614
1506576494248,631
1506576494256,644
1506576494264,655
1506576494272,659
1506576494276,659
1506576494285,653
1506576494293,645
1506576494301,633
1506576494309,616
1506576494317,601
1506576494326,582
1506576494334,562
1506576494342,546
1506576494350,527
1506576494358,513
1506576494366,500
1506576494375,488
1506576494383,480
1506576494391,472
1506576494399,469
1506576494407,465
1506576494416,463
1506576494424,464
1506576494432,464
1506576494436,467
1506576494444,471
1506576494452,476
1506576494461,482
1506576494469,486
1506576494477,494
1506576494485,498
1506576494493,504
1506576494502,510
1506576494510,512
1506576494518,517
1506576494526,519
1506576494534,520
1506576494542,521
1506576494551,519
1506576494559,518
1506576494567,514
1506576494575,511
1506576494583,507
1506576494591,501
1506576494596,499
1506576494604,493
1506576494612,489
1506576494620,486
1506576494628,482
1506576494637,480
1506576494645,477
1506576494653,474
1506576494661,475
1506576494669,474
1506576494678,474
1506576494686,475
1506576494694,477
1506576494702,479
1506576494710,480
1506576494718,483
1506576494727,483
1506576494735,485
1506576494743,489
1506576494751,489
1506576494755,490
1506576494763,492
1506576494772,493
1506576494780,494
1506576494788,493
1506576494797,494
1506576494805,493
1506576494813,492
1506576494821,493
1506576494829,495
1506576494837,500
1506576494846,507
1506576494854,518
1506576494862,534
1506576494870,550
1506576494878,571
1506576494886,591
1506576494894,612
1506576494902,630
1506576494911,643
1506576494915,653
1506576494923,658
1506576494931,657
1506576494940,654
1506576494947,643
1506576494956,631
1506576494964,615
1506576494973,596
1506576494981,578
1506576494989,558
1506576494997,542
1506576495005,526
1506576495013,511
1506576495022,499
1506576495030,487
1506576495038,480
1506576495046,474
1506576495054,468
1506576495062,466
1506576495071,463
1506576495075,463
1506576495083,464
1506576495092,466
1506576495100,471
1506576495108,473
1506576495116,479
1506576495124,485
1506576495133,490
1506576495141,497
1506576495149,501
1506576495157,508
1506576495165,511
1506576495173,513
1506576495181,516
1506576495189,516
1506576495197,517
1506576495206,517
1506576495214,515
1506576495222,511
1506576495230,507
1506576495234,504
1506576495242,500
1506576495251,497
1506576495259,492
1506576495267,487
1506576495276,484
1506576495284,481
1506576495292,478
1506576495300,477
1506576495308,474
1506576495317,473
1506576495325,472
1506576495333,472
1506576495341,473
1506576495349,471
1506576495357,475
1506576495366,476
1506576495374,476
1506576495382,480
1506576495390,480
1506576495394,482
1506576495403,486
1506576495411,487
1506576495419,489
1506576495427,490
1506576495435,491
1506576495443,491
1506576495452,491
1506576495460,493
1506576495468,490
1506576495476,491
1506576495485,491
1506576495493,489
1506576495501,489
1506576495510,488
1506576495518,489
1506576495526,493
1506576495534,498
1506576495542,508
1506576495550,519
1506576495554,537
1506576495563,558
1506576495571,578
1506576495579,601
1506576495587,619
1506576495595,636
1506576495603,649
1506576495612,658
1506576495620,662
1506576495628,658
1506576495636,652
1506576495645,641
1506576495653,626
1506576495661,611
1506576495669,591
1506576495677,575
1506576495685,557
1506576495694,538
1506576495702,526
1506576495710,511
1506576495718,500
1506576495722,490
1506576495730,482
1506576495739,477
1506576495747,472
1506576495755,470
1506576495763,468
1506576495771,466
1506576495780,470
1506576495788,469
1506576495796,473
1506576495804,478
1506576495812,482
1506576495820,488
1506576495829,492
1506576495837,497
1506576495845,502
1506576495853,505
1506576495861,511
1506576495870,512
1506576495878,516
1506576495882,516
1506576495890,515
1506576495898,516
1506576495906,512
1506576495915,511
1506576495923,507
1506576495931,503
1506576495939,500
1506576495947,494
1506576495956,491
1506576495964,487
1506576495972,483
1506576495980,482
1506576495988,478
1506576495997,477
1506576496005,476
1506576496013,474
1506576496021,476
1506576496029,474
1506576496037,475
1506576496041,476
1506576496050,475
1506576496057,478
1506576496065,477
1506576496074,480
1506576496082,482
1506576496090,482
1506576496098,484
1506576496106,484
1506576496115,486
1506576496123,487
1506576496132,486
1506576496140,487
1506576496148,486
1506576496157,487
1506576496165,488
1506576496173,486
1506576496181,488
1506576496190,488
1506576496197,487
1506576496201,487
1506576496210,486
1506576496218,487
1506576496226,486
1506576496234,485
1506576496242,484
1506576496251,482
1506576496259,483
1506576496267,480
1506576496275,479
1506576496283,480
1506576496292,479
1506576496300,484
1506576496308,490
1506576496316,500
1506576496324,517
1506576496332,535
1506576496341,556
1506576496349,578
1506576496357,601
1506576496361,622
1506576496369,638
1506576496377,652
1506576496386,660
1506576496394,661
1506576496402,658
1506576496410,649
1506576496418,638
1506576496427,623
1506576496435,605
1506576496443,587
1506576496451,566
1506576496459,549
1506576496468,530
1506576496476,514
1506576496484,503
1506576496492,489
1506576496500,482
1506576496508,473
1506576496516,469
1506576496521,465
1506576496529,463
1506576496537,462
1506576496545,461
1506576496553,463
1506576496562,468
1506576496570,469
1506576496578,476
1506576496586,480
1506576496594,486
1506576496603,494
1506576496611,498
1506576496619,504
1506576496627,508
1506576496635,511
1506576496643,515
1506576496652,513
1506576496660,516
1506576496668,512
1506576496676,511
1506576496681,510
1506576496689,504
1506576496697,502
1506576496705,497
1506576496714,492
1506576496722,488
1506576496730,483
1506576496738,480
1506576496746,476
1506576496754,474
1506576496763,472
1506576496771,469
1506576496779,470
1506576496787,469
1506576496795,468
1506576496804,470
1506576496812,470
1506576496820,471
1506576496828,471
1506576496836,473
1506576496840,475
1506576496849,475
1506576496857,478
1506576496865,478
1506576496873,479
1506576496881,481
1506576496890,480
1506576496898,483
1506576496906,483
1506576496914,483
1506576496922,485
1506576496930,484
1506576496939,487
1506576496947,485
1506576496955,485
1506576496963,486
1506576496971,485
1506576496979,486
1506576496988,485
1506576496996,484
1506576497000,485
1506576497008,484
1506576497016,485
1506576497024,483
1506576497033,482
1506576497041,482
1506576497049,480
1506576497057,480
1506576497065,477
1506576497074,476
1506576497082,477
1506576497090,476
1506576497098,480
1506576497106,487
1506576497114,497
1506576497123,512
1506576497131,529
1506576497139,550
1506576497147,570
1506576497155,591
1506576497160,612
1506576497168,627
1506576497176,641
1506576497185,648
1506576497193,649
1506576497201,648
1506576497209,639
1506576497217,629
1506576497225,613
1506576497234,596
1506576497242,578
1506576497250,558
1506576497258,540
1506576497266,522
1506576497275,506
1506576497283,494
1506576497291,480
1506576497299,472
1506576497307,465
1506576497316,459
1506576497324,456
1506576497328,454
1506576497336,455
1506576497344,456
1506576497352,458
1506576497361,463
1506576497369,466
1506576497377,473
1506576497385,478
1506576497393,485
1506576497401,493
1506576497410,498
1506576497418,505
1506576497426,509
1506576497434,512
1506576497442,516
1506576497451,516
1506576497459,516
1506576497467,515
1506576497475,513
1506576497483,512
1506576497487,506
1506576497496,503
1506576497504,499
1506576497512,494
1506576497520,491
1506576497528,485
1506576497537,482
1506576497545,478
1506576497553,475
1506576497561,474
1506576497569,470
1506576497577,471
1506576497586,471
1506576497594,470
1506576497602,472
1506576497610,471
1506576497618,473
1506576497627,474
1506576497635,475
1506576497643,478
1506576497647,478
1506576497655,482
1506576497663,482
1506576497672,483
1506576497680,486
1506576497688,486
1506576497696,487
1506576497704,489
1506576497712,488
1506576497721,489
1506576497729,488
1506576497737,489
1506576497745,487
1506576497754,486
1506576497762,488
1506576497770,486
1506576497778,487
1506576497786,487
1506576497794,485
1506576497802,487
1506576497807,485
1506576497815,486
1506576497823,485
1506576497831,484
1506576497840,484
1506576497848,483
1506576497856,484
1506576497864,483
1506576497873,482
1506576497881,486
1506576497889,487
1506576497897,493
1506576497905,504
1506576497914,517
1506576497922,534
1506576497930,554
1506576497938,574
1506576497946,593
1506576497954,612
1506576497963,629
1506576497967,639
1506576497975,647
1506576497983,650
1506576497991,646
1506576498000,640
1506576498008,626
1506576498016,613
1506576498024,596
1506576498032,576
1506576498040,559
1506576498049,538
1506576498057,522
1506576498065,507
1506576498073,491
1506576498081,481
1506576498090,471
1506576498098,463
1506576498105,459
1506576498114,455
1506576498122,454
1506576498126,454
1506576498134,456
1506576498142,459
1506576498150,463
1506576498159,471
1506576498167,476
1506576498175,484
1506576498183,491
1506576498192,496
1506576498200,504
1506576498208,508
1506576498216,514
1506576498224,518
1506576498232,520
1506576498240,523
1506576498249,521
1506576498257,521
1506576498265,519
1506576498273,515
1506576498281,512
1506576498285,506
1506576498294,502
1506576498302,497
1506576498311,492
1506576498319,488
1506576498327,483
1506576498335,481
1506576498343,478
1506576498351,474
1506576498360,474
1506576498368,470
1506576498376,471
1506576498384,472
1506576498392,470
1506576498401,473
1506576498409,474
1506576498417,475
1506576498425,477
1506576498433,479
1506576498441,481
1506576498445,481
1506576498454,484
1506576498462,485
1506576498470,486
1506576498479,490
1506576498487,489
1506576498495,490
1506576498503,491
1506576498512,491
1506576498520,492
1506576498528,492
1506576498536,492
1506576498544,493
1506576498552,490
1506576498561,491
1506576498569,490
1506576498577,490
1506576498585,489
1506576498593,487
1506576498601,488
1506576498606,485
1506576498614,486
1506576498622,485
1506576498630,485
1506576498639,490
1506576498647,495
1506576498655,505
1506576498663,519
1506576498671,533
1506576498679,553
1506576498687,571
1506576498696,590
1506576498704,608
1506576498712,622
1506576498720,634
1506576498729,639
1506576498737,640
1506576498745,638
1506576498753,629
1506576498761,619
1506576498765,604
1506576498774,587
1506576498782,570
1506576498790,552
1506576498798,534
1506576498806,515
1506576498814,500
1506576498823,488
1506576498831,475
1506576498839,467
1506576498847,460
1506576498855,455
1506576498864,452
1506576498872,450
1506576498880,452
1506576498888,453
1506576498897,458
1506576498905,464
1506576498913,468
1506576498921,477
1506576498925,483
1506576498933,491
1506576498941,498
1506576498950,503
1506576498958,509
1506576498966,513
1506576498974,517
1506576498982,520
1506576498990,521
1506576498999,522
1506576499007,520
1506576499015,517
1506576499023,516
1506576499031,509
1506576499039,506
1506576499048,501
1506576499056,495
1506576499065,492
1506576499073,486
1506576499080,483
1506576499089,479
1506576499093,476
1506576499101,475
1506576499109,472
1506576499117,473
1506576499125,471
1506576499134,471
1506576499142,472
1506576499150,471
1506576499159,475
1506576499167,476
1506576499175,478
1506576499183,480
1506576499191,481
1506576499199,485
1506576499207,485
1506576499215,487
1506576499224,489
1506576499232,488
1506576499240,490
1506576499248,489
1506576499252,490
1506576499261,491
1506576499269,490
1506576499277,492
1506576499285,489
1506576499293,490
1506576499301,490
1506576499310,488
1506576499318,489
1506576499326,487
1506576499334,487
1506576499342,488
1506576499351,487
1506576499359,489
1506576499367,493
1506576499375,500
1506576499383,511
1506576499392,524
1506576499400,543
1506576499408,559
1506576499412,579
1506576499420,597
1506576499429,611
1506576499436,626
1506576499445,634
1506576499453,638
1506576499462,638
1506576499470,632
1506576499477,623
1506576499485,611
1506576499494,596
1506576499502,581
1506576499510,560
1506576499518,544
1506576499526,525
1506576499535,507
1506576499543,494
1506576499551,480
1506576499560,470
1506576499568,461
1506576499572,454
1506576499580,451
1506576499588,448
1506576499596,450
1506576499605,450
1506576499613,453
1506576499621,460
1506576499629,464
1506576499638,472
1506576499646,479
1506576499654,486
1506576499662,494
1506576499671,500
1506576499678,507
1506576499686,512
1506576499695,516
1506576499703,521
1506576499711,522
1506576499719,523
1506576499727,522
1506576499731,520
1506576499740,518
1506576499748,514
1506576499756,509
1506576499765,505
1506576499773,499
1506576499781,496
1506576499789,490
1506576499797,486
1506576499806,482
1506576499814,478
1506576499822,477
1506576499831,473
1506576499838,473
1506576499846,472
1506576499855,471
1506576499863,474
1506576499871,473
1506576499879,475
1506576499887,475
1506576499892,477
1506576499900,480
1506576499908,480
1506576499916,484
1506576499924,484
1506576499933,486
1506576499941,490
1506576499949,490
1506576499957,492
1506576499965,492
1506576499974,493
1506576499982,494
1506576499990,493
1506576499998,493
1506576500006,491
1506576500015,491
1506576500023,492
1506576500031,490
1506576500039,492
1506576500047,495
1506576500051,500
1506576500060,510
1506576500068,521
1506576500076,536
1506576500084,553
1506576500092,570
1506576500101,589
1506576500109,604
1506576500117,618
1506576500125,628
1506576500133,632
1506576500142,635
1506576500150,631
1506576500158,624
1506576500166,614
1506576500174,599
1506576500182,584
1506576500191,566
1506576500199,549
1506576500207,530
1506576500211,513
1506576500219,500
1506576500227,485
1506576500235,475
1506576500243,466
1506576500252,456
1506576500260,453
1506576500268,449
1506576500276,449
1506576500284,450
1506576500292,452
1506576500301,458
1506576500309,463
1506576500318,471
1506576500326,478
1506576500334,485
1506576500342,494
1506576500350,500
1506576500358,507
1506576500366,513
1506576500371,517
1506576500379,522
1506576500387,523
1506576500395,525
1506576500403,525
1506576500412,522
1506576500420,521
1506576500428,515
1506576500436,512
1506576500445,508
1506576500453,501
1506576500461,497
1506576500469,491
1506576500478,487
1506576500486,482
1506576500494,478
1506576500502,476
1506576500511,472
1506576500519,472
1506576500527,472
1506576500531,470
1506576500539,473
1506576500547,472
1506576500555,474
1506576500563,477
1506576500572,478
1506576500580,480
1506576500588,481
1506576500596,484
1506576500604,485
1506576500613,487
1506576500621,490
1506576500629,491
1506576500637,493
1506576500645,492
1506576500654,491
1506576500662,494
1506576500670,494
1506576500678,498
1506576500686,503
1506576500692,510
1506576500698,523
1506576500707,536
1506576500715,553
1506576500723,570
1506576500731,587
1506576500739,605
1506576500748,616
1506576500756,627
1506576500764,635
1506576500772,635
1506576500780,635
1506576500789,628
1506576500797,618
1506576500805,605
1506576500813,589
1506576500821,574
1506576500830,555
1506576500838,539
1506576500846,523
1506576500854,506
1506576500858,494
1506576500866,482
1506576500875,472
1506576500883,466
1506576500891,459
1506576500899,457
1506576500907,454
1506576500915,456
1506576500924,458
1506576500932,461
1506576500940,469
1506576500948,473
1506576500956,479
1506576500965,487
1506576500973,494
1506576500981,501
1506576500989,507
1506576500997,513
1506576501005,519
1506576501014,521
1506576501018,525
1506576501026,524
1506576501034,526
1506576501043,524
1506576501051,521
1506576501059,519
1506576501067,514
1506576501075,510
1506576501083,506
1506576501092,501
1506576501100,497
1506576501108,491
1506576501116,487
1506576501124,483
1506576501133,480
1506576501141,480
1506576501149,476
1506576501157,476
1506576501165,476
1506576501173,475
1506576501178,476
1506576501186,477
1506576501194,478
1506576501203,480
1506576501211,482
1506576501219,484
1506576501227,484
1506576501235,486
1506576501243,488
1506576501252,487
1506576501260,489
1506576501268,489
1506576501276,491
1506576501284,494
1506576501293,498
1506576501301,507
1506576501309,518
1506576501317,532
1506576501325,549
1506576501333,567
1506576501338,588
1506576501346,605
1506576501354,621
1506576501362,636
1506576501371,643
1506576501378,649
1506576501387,649
1506576501395,643
1506576501403,634
1506576501411,621
1506576501419,607
1506576501428,588
1506576501436,572
1506576501444,554
1506576501452,535
1506576501460,521
1506576501469,506
1506576501477,493
1506576501485,483
1506576501493,474
1506576501497,469
1506576501505,464
1506576501514,462
1506576501522,460
1506576501530,460
1506576501538,464
1506576501546,468
1506576501554,472
1506576501563,479
1506576501571,484
1506576501579,493
1506576501587,500
1506576501596,507
1506576501604,513
1506576501612,519
1506576501620,524
1506576501628,526
1506576501636,528
1506576501645,530
1506576501653,528
1506576501657,527
1506576501665,523
1506576501673,519
1506576501681,516
1506576501690,510
1506576501698,506
1506576501706,500
1506576501714,496
1506576501722,492
1506576501731,487
1506576501739,486
1506576501747,482
1506576501755,480
1506576501764,480
1506576501772,478
1506576501780,479
1506576501788,478
1506576501797,479
1506576501805,480
1506576501813,480
1506576501817,483
1506576501825,483
1506576501833,485
1506576501841,488
1506576501850,487
1506576501858,490
1506576501866,490
1506576501874,491
1506576501882,494
1506576501891,493
1506576501899,498
1506576501907,502
1506576501915,512
1506576501923,524
1506576501932,537
1506576501940,556
1506576501948,574
1506576501956,594
1506576501965,614
1506576501972,630
1506576501976,645
1506576501985,653
1506576501993,658
1506576502001,657
1506576502009,652
1506576502017,644
1506576502026,629
1506576502034,614
1506576502042,597
1506576502050,578
1506576502058,562
1506576502066,545
1506576502075,529
1506576502083,515
1506576502091,501
1506576502099,492
1506576502107,483
1506576502116,476
1506576502124,473
1506576502132,468
1506576502136,469
1506576502144,468
1506576502152,469
1506576502161,474
1506576502169,476
1506576502177,482
1506576502185,487
1506576502193,493
1506576502202,501
1506576502210,505
1506576502218,512
1506576502226,516
1506576502234,520
1506576502243,525
1506576502251,525
1506576502259,527
1506576502267,526
1506576502275,524
1506576502283,523
1506576502291,517
1506576502300,514
1506576502304,509
1506576502312,504
1506576502320,501
1506576502329,495
1506576502337,492
1506576502345,488
1506576502353,484
1506576502362,483
1506576502370,479
1506576502378,479
1506576502386,476
1506576502394,477
1506576502403,478
1506576502411,476
1506576502419,479
1506576502427,480
1506576502435,480
1506576502443,484
1506576502452,484
1506576502460,487
1506576502464,489
1506576502472,492
1506576502480,493
1506576502488,492
1506576502497,495
1506576502505,494
1506576502513,494
1506576502521,495
1506576502529,494
1506576502538,494
1506576502546,494
1506576502554,493
1506576502562,494
1506576502571,496
1506576502578,502
1506576502587,511
1506576502595,522
1506576502603,540
1506576502611,557
1506576502619,578
1506576502623,599
1506576502632,619
1506576502640,637
1506576502648,649
1506576502656,659
1506576502664,663
1506576502673,663
1506576502681,659
1506576502689,648
1506576502697,635
1506576502705,620
1506576502714,600
1506576502722,584
1506576502730,565
1506576502738,549
1506576502746,533
1506576502755,519
1506576502763,509
1506576502771,498
1506576502779,491
1506576502783,485
1506576502791,480
1506576502800,477
1506576502808,474
1506576502816,476
1506576502824,476
1506576502832,477
1506576502840,481
1506576502849,483
1506576502857,489
1506576502865,493
1506576502873,498
1506576502881,504
1506576502890,507
1506576502898,512
1506576502906,515
1506576502914,517
1506576502922,520
1506576502930,519
1506576502939,519
1506576502943,518
1506576502951,514
1506576502959,512
1506576502967,507
1506576502975,504
1506576502984,499
1506576502992,495
1506576503000,492
1506576503008,487
1506576503016,484
1506576503025,481
1506576503033,478
1506576503041,478
1506576503050,476
1506576503058,476
1506576503066,476
1506576503074,475
1506576503082,477
1506576503091,476
1506576503099,480
1506576503103,481
1506576503111,481
1506576503119,483
1506576503127,484
1506576503136,484
1506576503144,487
1506576503152,487
1506576503160,489
1506576503168,489
1506576503177,491
1506576503185,492
1506576503193,492
1506576503201,494
1506576503209,492
1506576503218,494
1506576503226,494
1506576503234,494
1506576503242,495
1506576503251,493
1506576503258,493
1506576503262,493
1506576503271,492
1506576503279,492
1506576503287,489
1506576503295,490
1506576503303,489
1506576503312,488
1506576503320,492
1506576503328,496
1506576503336,505
1506576503344,519
1506576503353,535
1506576503361,556
1506576503369,577
1506576503377,600
1506576503385,620
1506576503394,637
1506576503402,655
1506576503410,663
1506576503418,669
1506576503422,669
1506576503430,662
1506576503439,654
1506576503447,639
1506576503455,623
1506576503463,605
1506576503471,587
1506576503480,569
1506576503488,550
1506576503496,534
1506576503504,521
1506576503512,506
1506576503521,499
1506576503529,489
1506576503537,482
1506576503545,478
1506576503553,474
1506576503561,474
1506576503570,472
1506576503578,474
1506576503582,477
1506576503590,479
1506576503598,486
1506576503607,488
1506576503615,495
1506576503623,501
1506576503631,504
1506576503639,511
1506576503647,515
1506576503656,520
1506576503664,522
1506576503672,523
1506576503680,524
1506576503688,522
1506576503697,520
1506576503705,519
1506576503713,513
1506576503721,511
1506576503729,505
1506576503737,501
1506576503742,498
1506576503750,493
1506576503758,490
1506576503766,485
1506576503775,483
1506576503782,480
1506576503791,477
1506576503799,479
1506576503807,476
1506576503815,476
1506576503823,477
1506576503832,477
1506576503840,479
1506576503848,480
1506576503856,482
1506576503864,484
1506576503873,485
1506576503881,488
1506576503889,487
1506576503897,490
1506576503905,492
1506576503909,491
1506576503917,494
1506576503926,493
1506576503934,494
1506576503942,496
1506576503950,495
1506576503958,497
1506576503967,495
1506576503975,495
1506576503983,495
1506576503991,495
1506576504000,495
1506576504008,493
1506576504016,493
1506576504024,494
1506576504032,491
1506576504040,491
1506576504049,490
1506576504057,489
1506576504065,489
1506576504069,487
1506576504077,488
1506576504085,485
1506576504094,485
1506576504102,487
1506576504110,485
1506576504118,487
1506576504126,490
1506576504134,495
1506576504143,507
1506576504151,519
1506576504159,539
1506576504167,558
1506576504175,581
1506576504184,604
1506576504192,625
1506576504200,646
1506576504208,661
1506576504216,671
1506576504224,678
1506576504229,675
1506576504237,671
1506576504245,659
1506576504253,646
1506576504261,629
1506576504270,608
1506576504278,589
1506576504286,568
1506576504295,550
1506576504303,533
1506576504311,517
1506576504319,505
1506576504327,493
1506576504335,485
1506576504344,479
1506576504352,473
1506576504360,471
1506576504368,469
1506576504376,470
1506576504384,471
1506576504389,473
1506576504397,478
1506576504405,482
1506576504413,488
1506576504421,495
1506576504430,500
1506576504438,506
1506576504446,512
1506576504454,516
1506576504462,520
1506576504471,522
1506576504479,525
1506576504487,524
1506576504495,525
1506576504503,523
1506576504512,521
1506576504520,519
1506576504528,515
1506576504536,511
1506576504545,507
1506576504549,501
1506576504557,496
1506576504565,492
1506576504573,487
1506576504581,485
1506576504590,482
1506576504598,481
1506576504606,479
1506576504614,477
1506576504622,477
1506576504631,477
1506576504639,478
1506576504647,478
1506576504655,480
1506576504663,482
1506576504672,482
1506576504680,484
1506576504688,485
1506576504696,486
1506576504704,490
1506576504708,488
1506576504717,491
1506576504725,491
1506576504733,491
1506576504741,494
1506576504750,493
1506576504757,494
1506576504766,494
1506576504774,495
1506576504782,494
1506576504790,492
1506576504798,493
1506576504807,492
1506576504815,492
1506576504823,492
1506576504831,489
1506576504839,491
1506576504847,489
1506576504856,488
1506576504864,489
1506576504868,487
1506576504876,488
1506576504884,485
1506576504893,485
1506576504901,486
1506576504909,482
1506576504917,485
1506576504925,487
1506576504934,491
1506576504942,501
1506576504950,511
1506576504958,529
1506576504966,547
1506576504974,567
1506576504983,589
1506576504991,608
1506576504999,629
1506576505007,643
1506576505015,654
1506576505023,661
1506576505028,660
1506576505036,658
1506576505044,649
1506576505052,635
1506576505060,621
1506576505068,603
1506576505077,585
1506576505085,565
1506576505093,547
1506576505101,531
1506576505110,513
1506576505118,501
1506576505126,490
1506576505134,480
1506576505142,476
1506576505150,468
1506576505158,466
1506576505167,463
1506576505175,463
1506576505183,465
1506576505188,467
1506576505196,473
1506576505204,477
1506576505212,483
1506576505220,491
1506576505228,497
1506576505237,505
1506576505245,511
1506576505253,515
1506576505261,521
1506576505269,523
1506576505277,525
1506576505285,525
1506576505294,523
1506576505302,523
1506576505310,517
1506576505318,516
1506576505326,511
1506576505335,506
1506576505343,503
1506576505347,496
1506576505356,493
1506576505364,488
1506576505372,484
1506576505380,480
1506576505388,475
1506576505396,474
1506576505405,472
1506576505413,470
1506576505421,472
1506576505429,470
1506576505437,473
1506576505446,474
1506576505454,475
1506576505462,477
1506576505470,478
1506576505478,480
1506576505486,482
1506576505494,483
1506576505503,487
1506576505507,486
1506576505515,490
1506576505523,490
1506576505531,491
1506576505539,493
1506576505548,492
1506576505556,492
1506576505564,492
1506576505573,491
1506576505581,491
1506576505589,489
1506576505597,490
1506576505605,488
1506576505614,487
1506576505622,488
1506576505630,485
1506576505638,485
1506576505646,485
1506576505655,482
1506576505663,482
1506576505670,480
1506576505674,481
1506576505683,480
1506576505691,480
1506576505699,484
1506576505707,488
1506576505715,498
1506576505724,511
1506576505732,525
1506576505740,546
1506576505748,564
1506576505757,585
1506576505765,606
1506576505773,621
1506576505781,637
1506576505790,645
1506576505798,650
1506576505806,648
1506576505814,643
1506576505822,635
1506576505830,619
1506576505835,604
1506576505843,586
1506576505851,567
1506576505859,549
1506576505867,529
1506576505876,513
1506576505884,498
1506576505892,486
1506576505900,476
1506576505908,467
1506576505916,462
1506576505925,458
1506576505933,455
1506576505941,457
1506576505949,458
1506576505957,461
1506576505965,466
1506576505974,471
1506576505982,478
1506576505990,484
1506576505994,492
1506576506002,499
1506576506011,506
1506576506019,513
1506576506027,517
1506576506035,522
1506576506043,526
1506576506051,528
1506576506060,529
1506576506068,526
1506576506076,525
1506576506084,522
1506576506092,517
1506576506101,513
1506576506109,506
1506576506117,502
1506576506125,497
1506576506134,491
1506576506142,487
1506576506150,482
1506576506154,480
1506576506162,476
1506576506171,474
1506576506179,473
1506576506187,470
1506576506195,470
1506576506203,472
1506576506212,471
1506576506220,474
1506576506228,474
1506576506236,477
1506576506244,479
1506576506253,480
1506576506261,484
1506576506269,483
1506576506277,486
1506576506285,488
1506576506293,488
1506576506302,491
1506576506310,491
1506576506314,492
1506576506322,492
1506576506330,492
1506576506338,494
1506576506347,491
1506576506355,492
1506576506363,492
1506576506371,490
1506576506379,491
1506576506388,489
1506576506396,489
1506576506404,490
1506576506412,491
1506576506420,497
1506576506428,505
1506576506437,517
1506576506445,532
1506576506453,549
1506576506461,567
1506576506469,582
1506576506474,600
1506576506482,614
1506576506490,623
1506576506498,632
1506576506506,632
1506576506514,630
1506576506523,625
1506576506531,613
1506576506539,601
1506576506547,584
1506576506555,568
1506576506564,551
1506576506572,531
1506576506580,516
1506576506588,500
1506576506596,487
1506576506604,477
1506576506613,466
1506576506621,459
1506576506629,454
1506576506633,451
1506576506641,448
1506576506650,450
1506576506658,454
1506576506666,457
1506576506674,463
1506576506682,469
1506576506690,476
1506576506698,485
1506576506707,491
1506576506715,499
1506576506723,506
1506576506731,511
1506576506739,517
1506576506748,520
1506576506756,523
1506576506764,524
1506576506773,523
1506576506781,523
1506576506789,518
1506576506793,515
1506576506801,511
1506576506810,505
1506576506818,500
1506576506826,494
1506576506834,489
1506576506842,484
1506576506851,478
1506576506859,476
1506576506867,471
1506576506875,470
1506576506883,469
1506576506891,467
1506576506900,469
1506576506908,468
1506576506916,469
1506576506924,471
1506576506932,471
1506576506941,475
1506576506949,476
1506576506953,480
1506576506961,481
1506576506969,483
1506576506977,487
1506576506986,488
1506576506994,489
1506576507002,490
1506576507010,490
1506576507018,491
1506576507027,490
1506576507035,491
1506576507043,490
1506576507051,490
1506576507059,492
1506576507067,493
1506576507076,500
1506576507084,508
1506576507092,520
1506576507100,535
1506576507108,552
1506576507112,570
1506576507121,586
1506576507129,602
1506576507137,616
1506576507145,624
1506576507153,631
1506576507162,632
1506576507170,627
1506576507178,621
1506576507186,609
1506576507194,594
1506576507203,579
1506576507211,560
1506576507219,543
1506576507227,525
1506576507235,508
1506576507243,494
1506576507252,479
1506576507260,470
1506576507268,460
1506576507272,454
1506576507280,451
1506576507288,447
1506576507297,447
1506576507305,448
1506576507313,450
1506576507321,454
1506576507329,459
1506576507338,466
1506576507346,471
1506576507354,480
1506576507362,487
1506576507371,493
1506576507378,501
1506576507387,505
1506576507395,509
1506576507403,513
1506576507411,514
1506576507419,516
1506576507428,515
1506576507436,514
1506576507440,513
1506576507448,508
1506576507456,505
1506576507464,499
1506576507473,495
1506576507481,492
1506576507489,485
1506576507497,482
1506576507505,478
1506576507514,473
1506576507522,470
1506576507531,467
1506576507539,467
1506576507546,464
1506576507554,466
1506576507563,468
1506576507571,467
1506576507579,469
1506576507587,471
1506576507595,473
1506576507599,476
1506576507608,477
1506576507616,480
1506576507624,481
1506576507633,482
1506576507641,484
1506576507649,483
1506576507657,485
1506576507665,484
1506576507674,484
1506576507682,487
1506576507690,488
1506576507698,494
1506576507706,500
1506576507715,512
1506576507722,527
1506576507731,542
1506576507739,561
1506576507747,578
1506576507755,597
1506576507759,612
1506576507767,623
1506576507775,633
1506576507784,637
1506576507792,635
1506576507800,632
1506576507809,622
1506576507817,609
1506576507825,593
1506576507833,576
1506576507841,559
1506576507850,539
1506576507858,522
1506576507866,506
1506576507874,491
1506576507882,480
1506576507891,469
1506576507899,463
1506576507907,457
1506576507915,453
1506576507919,452
1506576507927,451
1506576507935,454
1506576507943,455
1506576507951,460
1506576507960,466
1506576507968,469
1506576507976,478
1506576507985,485
1506576507993,492
1506576508001,498
1506576508010,502
1506576508018,507
1506576508026,510
1506576508034,512
1506576508042,514
1506576508051,514
1506576508059,516
1506576508067,513
1506576508075,510
1506576508079,510
1506576508087,504
1506576508095,501
1506576508104,496
1506576508112,491
1506576508120,487
1506576508128,481
1506576508136,479
1506576508145,473
1506576508153,472
1506576508161,471
1506576508169,468
1506576508177,469
1506576508186,469
1506576508194,469
1506576508202,472
1506576508210,471
1506576508218,474
1506576508226,474
1506576508235,476
1506576508239,479
1506576508247,479
1506576508255,483
1506576508263,482
1506576508272,482
1506576508280,485
1506576508288,484
1506576508296,486
1506576508304,487
1506576508313,490
1506576508321,497
1506576508329,507
1506576508337,520
1506576508345,532
1506576508353,548
1506576508362,568
1506576508370,584
1506576508378,604
1506576508386,619
1506576508394,631
1506576508398,640
1506576508407,642
1506576508415,642
1506576508423,635
1506576508431,625
1506576508439,613
1506576508448,596
1506576508456,581
1506576508464,561
1506576508472,542
1506576508480,528
1506576508488,510
1506576508497,498
1506576508505,486
1506576508513,476
1506576508521,469
1506576508530,463
1506576508538,461
1506576508546,458
1506576508554,458
1506576508558,460
1506576508566,460
1506576508574,465
1506576508583,468
1506576508591,471
1506576508599,478
1506576508607,483
1506576508616,489
1506576508624,494
1506576508632,498
1506576508640,503
1506576508649,505
1506576508657,509
1506576508665,510
1506576508673,511
1506576508681,512
1506576508690,509
1506576508698,508
1506576508706,505
1506576508714,502
1506576508718,500
1506576508726,494
1506576508735,491
1506576508743,486
1506576508751,481
1506576508759,480
1506576508767,474
1506576508775,472
1506576508784,471
1506576508792,468
1506576508800,469
1506576508808,466
1506576508816,469
1506576508825,469
1506576508833,471
1506576508841,473
1506576508849,472
1506576508857,475
1506576508866,476
1506576508874,476
1506576508882,480
1506576508886,479
1506576508894,480
1506576508902,482
1506576508911,481
1506576508919,483
1506576508927,481
1506576508935,483
1506576508943,483
1506576508952,486
1506576508960,490
1506576508968,496
1506576508976,507
1506576508984,522
1506576508992,538
1506576509001,559
1506576509009,578
1506576509017,600
1506576509025,619
1506576509033,634
1506576509041,645
1506576509046,648
1506576509054,652
1506576509062,645
1506576509070,636
1506576509078,625
1506576509087,607
1506576509095,590
1506576509103,572
1506576509111,553
1506576509119,535
1506576509128,519
1506576509136,504
1506576509144,492
1506576509152,480
1506576509160,473
1506576509168,464
1506576509177,461
1506576509185,457
1506576509193,455
1506576509201,457
1506576509205,457
1506576509213,461
1506576509222,463
1506576509230,468
1506576509238,474
1506576509246,477
1506576509254,484
1506576509263,489
1506576509271,493
1506576509279,499
1506576509287,500
1506576509295,503
1506576509303,504
1506576509312,505
1506576509320,505
1506576509328,503
1506576509337,501
1506576509345,497
1506576509353,494
1506576509361,492
1506576509365,486
1506576509374,484
1506576509382,482
1506576509390,477
1506576509398,476
1506576509406,472
1506576509414,471
1506576509423,470
1506576509431,469
1506576509439,469
1506576509447,467
1506576509455,469
1506576509464,468
1506576509472,469
1506576509480,471
1506576509488,471
1506576509496,473
1506576509504,475
1506576509513,477
1506576509521,478
1506576509525,479
1506576509533,481
1506576509541,482
1506576509550,481
1506576509558,485
1506576509566,483
1506576509574,485
1506576509582,486
1506576509591,485
1506576509599,487
1506576509607,486
1506576509615,486
1506576509623,485
1506576509631,483
1506576509640,484
1506576509648,481
1506576509656,481
1506576509664,481
1506576509672,479
1506576509680,482
1506576509685,482
1506576509693,489
1506576509701,496
1506576509709,506
1506576509717,523
1506576509726,541
1506576509734,563
1506576509742,586
1506576509750,606
1506576509758,624
1506576509767,639
1506576509775,650
1506576509783,655
1506576509791,655
1506576509799,651
1506576509807,639
1506576509816,628
1506576509824,611
1506576509832,592
1506576509840,574
1506576509844,553
1506576509853,535
1506576509861,518
1506576509869,502
1506576509877,492
1506576509885,479
1506576509893,472
1506576509902,467
1506576509910,461
1506576509918,461
1506576509926,458
1506576509934,459
1506576509943,461
1506576509951,462
1506576509959,467
1506576509967,472
1506576509975,477
1506576509983,482
1506576509991,486
1506576509999,493
1506576510003,495
1506576510012,500
1506576510020,503
1506576510028,504
1506576510036,507
1506576510044,505
1506576510053,505
1506576510061,504
1506576510069,500
1506576510078,500
1506576510086,495
1506576510094,493
1506576510102,490
1506576510111,486
1506576510119,485
1506576510127,480
1506576510135,478
1506576510143,477
1506576510151,473
1506576510159,473
1506576510164,470
1506576510172,469
1506576510181,469
1506576510189,468
1506576510197,470
1506576510205,470
1506576510213,473
1506576510221,474
1506576510230,475
1506576510238,478
1506576510246,479
1506576510254,480
1506576510262,481
1506576510271,481
1506576510279,483
1506576510287,482
1506576510295,483
1506576510303,484
1506576510311,483
1506576510319,484
1506576510324,482
1506576510332,481
1506576510340,482
1506576510348,481
1506576510356,480
1506576510365,479
1506576510373,479
1506576510381,478
1506576510389,477
1506576510397,478
1506576510405,476
1506576510414,477
1506576510422,477
1506576510430,475
1506576510438,478
1506576510446,476
1506576510455,476
1506576510463,477
1506576510471,475
1506576510479,476
1506576510483,474
1506576510492,475
1506576510500,476
1506576510508,474
1506576510516,477
1506576510524,478
1506576510532,483
1506576510541,493
1506576510549,503
1506576510557,520
1506576510565,538
1506576510573,561
1506576510581,583
1506576510590,604
1506576510598,625
1506576510606,641
1506576510614,653
1506576510622,660
1506576510631,659
1506576510639,656
1506576510647,645
1506576510651,633
1506576510659,617
1506576510667,596
1506576510676,577
1506576510684,557
1506576510692,539
1506576510700,521
1506576510708,505
1506576510716,493
1506576510724,480
1506576510732,472
1506576510741,467
1506576510749,462
1506576510758,460
1506576510766,458
1506576510774,459
1506576510783,460
1506576510791,461
1506576510799,466
1506576510807,470
1506576510811,475
1506576510819,482
1506576510827,486
1506576510836,494
1506576510844,498
1506576510852,504
1506576510860,510
1506576510868,511
1506576510877,513
1506576510885,513
1506576510893,513
1506576510901,512
1506576510910,509
1506576510917,509
1506576510926,504
1506576510934,500
1506576510942,497
1506576510950,491
1506576510958,490
1506576510967,484
1506576510971,481
1506576510979,478
1506576510987,474
1506576510995,473
1506576511003,470
1506576511012,469
1506576511020,470
1506576511028,469
1506576511036,471
1506576511044,470
1506576511053,472
1506576511061,475
1506576511069,475
1506576511077,477
1506576511085,477
1506576511093,479
1506576511101,481
1506576511109,481
1506576511117,482
1506576511126,483
1506576511130,484
1506576511138,485
1506576511146,485
1506576511155,486
1506576511163,486
1506576511171,485
1506576511179,485
1506576511188,484
1506576511196,486
1506576511204,484
1506576511212,483
1506576511220,484
1506576511228,482
1506576511237,483
1506576511245,483
1506576511253,482
1506576511261,482
1506576511270,481
1506576511278,481
1506576511286,480
1506576511290,480
1506576511299,479
1506576511307,477
1506576511315,478
1506576511323,476
1506576511331,476
1506576511340,477
1506576511348,476
1506576511356,479
1506576511364,485
1506576511372,495
1506576511380,508
1506576511388,523
1506576511396,544
1506576511405,563
1506576511413,585
1506576511421,606
1506576511429,622
1506576511437,637
1506576511445,646
1506576511450,650
1506576511458,649
1506576511465,642
1506576511474,634
1506576511482,619
1506576511490,604
1506576511499,585
1506576511507,564
1506576511516,547
1506576511524,528
1506576511532,511
1506576511540,498
1506576511548,484
1506576511557,475
1506576511564,467
1506576511572,462
1506576511581,458
1506576511589,455
1506576511597,456
1506576511605,455
1506576511609,458
1506576511617,463
1506576511626,466
1506576511634,472
1506576511642,477
1506576511651,483
1506576511659,490
1506576511667,494
1506576511675,499
1506576511683,504
1506576511692,507
1506576511700,509
1506576511708,512
1506576511716,517
1506576511724,514
1506576511732,511
1506576511741,509
1506576511749,503
1506576511757,500
1506576511765,496
1506576511769,490
1506576511777,487
1506576511786,481
1506576511794,478
1506576511802,474
1506576511810,472
1506576511818,469
1506576511827,466
1506576511835,467
1506576511843,465
1506576511851,465
1506576511859,468
1506576511867,467
1506576511876,471
1506576511884,472
1506576511892,474
1506576511900,477
1506576511908,478
1506576511917,482
1506576511925,483
1506576511929,484
1506576511937,486
1506576511945,485
1506576511953,487
1506576511962,486
1506576511970,488
1506576511978,489
1506576511986,489
1506576511995,489
1506576512003,488
1506576512011,487
1506576512019,487
1506576512028,485
1506576512036,486
1506576512044,484
1506576512052,482
1506576512060,482
1506576512069,479
1506576512077,480
1506576512085,478
1506576512089,477
1506576512097,478
1506576512105,476
1506576512114,482
1506576512122,484
1506576512130,492
1506576512138,505
1506576512146,517
1506576512155,535
1506576512163,554
1506576512171,572
1506576512179,591
1506576512187,606
1506576512195,620
1506576512204,627
1506576512212,632
1506576512220,633
1506576512228,625
1506576512236,618
1506576512244,605
1506576512249,590
1506576512257,575
1506576512265,556
1506576512273,540
1506576512281,523
1506576512290,508
1506576512298,495
1506576512306,482
1506576512314,474
1506576512322,465
1506576512331,460
1506576512339,458
1506576512347,454
1506576512355,454
1506576512363,456
1506576512371,457
1506576512380,462
1506576512388,466
1506576512396,475
1506576512404,479
1506576512408,486
1506576512416,495
1506576512425,499
1506576512433,505
1506576512441,510
1506576512449,512
1506576512457,515
1506576512466,515
1506576512474,516
1506576512482,514
1506576512490,512
1506576512498,511
1506576512506,506
1506576512515,504
1506576512523,498
1506576512531,492
1506576512539,489
1506576512547,484
1506576512556,481
1506576512564,477
1506576512572,474
1506576512576,472
1506576512585,470
1506576512593,469
1506576512601,468
1506576512610,470
1506576512618,471
1506576512626,472
1506576512634,475
1506576512642,477
1506576512650,478
1506576512658,481
1506576512667,482
1506576512675,485
1506576512683,486
1506576512691,487
1506576512699,490
1506576512707,490
1506576512715,491
1506576512724,491
1506576512732,491
1506576512736,492
1506576512744,491
1506576512752,492
1506576512761,491
1506576512769,491
1506576512777,491
1506576512785,490
1506576512793,491
1506576512801,493
1506576512809,496
1506576512817,504
1506576512825,513
1506576512834,528
1506576512842,543
1506576512850,559
1506576512858,578
1506576512866,593
1506576512875,608
1506576512883,619
1506576512891,627
1506576512896,631
1506576512904,628
1506576512912,625
1506576512920,616
1506576512928,603
1506576512937,592
1506576512945,573
1506576512953,557
1506576512961,540
1506576512969,524
1506576512978,510
1506576512986,495
1506576512994,485
1506576513002,474
1506576513010,467
1506576513018,463
1506576513027,458
1506576513035,457
1506576513043,457
1506576513051,458
1506576513055,464
1506576513063,468
1506576513072,474
1506576513080,482
1506576513088,490
1506576513096,497
1506576513104,504
1506576513113,513
1506576513121,518
1506576513129,521
1506576513138,528
1506576513146,528
1506576513154,530
1506576513162,530
1506576513170,527
1506576513178,525
1506576513187,521
1506576513195,517
1506576513203,511
1506576513211,507
1506576513215,503
1506576513224,496
1506576513232,493
1506576513240,489
1506576513248,485
1506576513256,483
1506576513264,480
1506576513273,481
1506576513281,480
1506576513289,479
1506576513297,481
1506576513305,481
1506576513314,485
1506576513322,486
1506576513330,488
1506576513338,490
1506576513346,490
1506576513354,494
1506576513363,495
1506576513371,496
1506576513375,499
1506576513383,500
1506576513392,503
1506576513399,501
1506576513408,503
1506576513416,504
1506576513424,502
1506576513432,503
1506576513440,504
1506576513448,506
1506576513456,513
1506576513464,520
1506576513472,533
1506576513481,547
1506576513489,563
1506576513497,583
1506576513505,598
1506576513514,614
1506576513522,629
1506576513530,639
1506576513535,646
1506576513543,647
1506576513551,646
1506576513559,639
1506576513568,628
1506576513576,616
1506576513584,598
1506576513592,582
1506576513600,564
1506576513608,547
1506576513617,532
1506576513625,516
1506576513633,505
1506576513641,493
1506576513650,485
1506576513658,479
1506576513666,472
1506576513674,471
1506576513682,468
1506576513691,468
1506576513694,472
1506576513703,475
1506576513711,481
1506576513719,487
1506576513727,494
1506576513735,502
1506576513744,508
1506576513752,517
1506576513760,522
1506576513768,527
1506576513776,533
1506576513785,534
1506576513793,537
1506576513801,536
1506576513809,535
1506576513817,535
1506576513825,531
1506576513834,528
1506576513842,523
1506576513850,517
1506576513854,513
1506576513862,507
1506576513870,504
1506576513879,499
1506576513887,495
1506576513895,494
1506576513903,490
1506576513911,488
1506576513920,487
1506576513928,486
1506576513936,486
1506576513944,485
1506576513952,486
1506576513960,488
1506576513969,488
1506576513977,491
1506576513985,492
1506576513993,495
1506576514002,497
1506576514010,497
1506576514018,500
1506576514022,501
1506576514030,503
1506576514038,503
1506576514046,503
1506576514055,506
1506576514063,506
1506576514071,511
1506576514079,518
1506576514087,526
1506576514096,542
1506576514104,558
1506576514112,575
1506576514120,594
1506576514128,611
1506576514137,629
1506576514145,641
1506576514153,652
1506576514161,657
1506576514169,655
1506576514177,653
1506576514181,643
1506576514190,632
1506576514198,618
1506576514206,601
1506576514215,586
1506576514223,567
1506576514231,551
1506576514239,535
1506576514248,521
1506576514256,510
1506576514264,498
1506576514272,491
1506576514280,485
1506576514288,478
1506576514297,477
1506576514305,475
1506576514313,476
1506576514321,477
1506576514329,480
1506576514337,486
1506576514342,489
1506576514350,496
1506576514358,501
1506576514366,507
1506576514374,515
1506576514383,519
1506576514391,524
1506576514399,528
1506576514407,530
1506576514415,533
1506576514423,533
1506576514432,533
1506576514440,532
1506576514448,530
1506576514456,529
1506576514464,522
1506576514473,520
1506576514481,516
1506576514489,509
1506576514497,507
1506576514501,500
1506576514510,498
1506576514518,495
1506576514526,491
1506576514534,489
1506576514542,487
1506576514551,486
1506576514559,485
1506576514567,485
1506576514575,487
1506576514583,487
1506576514591,490
1506576514599,491
1506576514608,492
1506576514616,494
1506576514624,495
1506576514632,496
1506576514640,497
1506576514649,497
1506576514657,499
1506576514661,497
1506576514669,499
1506576514677,501
1506576514685,501
1506576514694,506
1506576514702,511
1506576514710,520
1506576514718,533
1506576514726,547
1506576514735,566
1506576514743,583
1506576514751,604
1506576514759,622
1506576514767,637
1506576514776,651
1506576514784,657
1506576514792,661
1506576514800,660
1506576514808,652
1506576514816,643
1506576514820,630
1506576514829,615
1506576514837,598
1506576514845,580
1506576514853,564
1506576514861,546
1506576514870,533
1506576514878,520
1506576514886,507
1506576514894,501
1506576514902,493
1506576514911,488
1506576514919,486
1506576514927,483
1506576514935,483
1506576514944,483
1506576514952,486
1506576514960,489
1506576514968,492
1506576514976,498
1506576514981,500
1506576514989,507
1506576514997,513
1506576515005,517
1506576515013,524
1506576515022,526
1506576515030,531
1506576515038,533
1506576515046,533
1506576515054,537
1506576515062,532
1506576515071,532
1506576515079,530
1506576515087,525
1506576515095,523
1506576515103,516
1506576515112,512
1506576515120,509
1506576515128,503
1506576515136,500
1506576515140,496
1506576515148,493
1506576515157,492
1506576515165,489
1506576515173,490
1506576515181,486
1506576515190,487
1506576515198,489
1506576515206,487
1506576515214,491
1506576515222,492
1506576515230,494
1506576515238,495
1506576515247,496
1506576515255,500
1506576515263,499
1506576515271,502
1506576515279,503
1506576515288,504
1506576515296,506
1506576515300,506
1506576515308,507
1506576515316,507
1506576515325,506
1506576515333,506
1506576515341,504
1506576515349,505
1506576515357,506
1506576515365,509
1506576515374,516
1506576515382,526
1506576515390,541
1506576515398,558
1506576515407,577
1506576515415,599
1506576515423,619
1506576515431,638
1506576515439,654
1506576515448,665
1506576515456,673
1506576515460,672
1506576515468,670
1506576515476,662
1506576515484,650
1506576515493,638
1506576515501,620
1506576515509,603
1506576515517,586
1506576515525,568
1506576515533,553
1506576515542,537
1506576515550,526
1506576515558,515
1506576515566,507
1506576515574,501
1506576515583,495
1506576515591,492
1506576515599,490
1506576515607,489
1506576515615,490
1506576515619,491
1506576515628,494
1506576515636,499
1506576515644,502
1506576515652,508
1506576515660,511
1506576515669,519
1506576515677,522
1506576515685,526
1506576515693,530
1506576515701,531
1506576515710,532
1506576515718,535
1506576515726,533
1506576515734,534
1506576515742,530
1506576515750,528
1506576515759,525
1506576515767,521
1506576515775,518
1506576515783,514
1506576515787,510
1506576515796,507
1506576515804,503
1506576515812,501
1506576515820,498
1506576515828,496
1506576515837,495
1506576515845,492
1506576515853,493
1506576515861,491
1506576515870,493
1506576515878,493
1506576515886,493
1506576515893,496
1506576515902,496
1506576515910,497
1506576515918,498
1506576515926,498
1506576515934,501
1506576515942,502
1506576515947,503
1506576515955,503
1506576515963,503
1506576515971,506
1506576515980,504
1506576515988,504
1506576515996,504
1506576516004,502
1506576516012,503
1506576516020,502
1506576516029,500
1506576516037,501
1506576516045,500
1506576516053,502
1506576516061,503
1506576516070,512
1506576516078,524
1506576516086,538
1506576516094,558
1506576516102,580
1506576516106,601
1506576516115,626
1506576516123,646
1506576516131,663
1506576516139,677
1506576516147,685
1506576516156,687
1506576516164,683
1506576516172,677
1506576516181,665
1506576516188,649
1506576516197,631
1506576516205,611
1506576516213,592
1506576516221,573
1506576516230,555
1506576516237,541
1506576516246,527
1506576516254,516
1506576516262,506
1506576516266,499
1506576516275,495
1506576516283,489
1506576516291,489
1506576516299,487
1506576516307,488
1506576516315,490
1506576516323,492
1506576516332,497
1506576516340,502
1506576516348,507
1506576516356,513
1506576516364,518
1506576516373,525
1506576516381,529
1506576516389,533
1506576516397,537
1506576516405,538
1506576516413,540
1506576516421,539
1506576516426,537
1506576516434,536
1506576516442,532
1506576516450,528
1506576516458,522
1506576516467,519
1506576516475,513
1506576516483,507
1506576516491,504
1506576516499,499
1506576516507,496
1506576516516,493
1506576516524,490
1506576516532,489
1506576516540,488
1506576516549,486
1506576516557,487
1506576516565,487
1506576516573,488
1506576516582,488
1506576516586,490
1506576516594,493
1506576516603,493
1506576516611,494
1506576516619,497
1506576516627,497
1506576516635,499
1506576516643,499
1506576516652,500
1506576516660,501
1506576516668,501
1506576516676,502
1506576516684,501
1506576516693,503
1506576516701,503
1506576516709,503
1506576516717,504
1506576516725,503
1506576516734,503
1506576516742,502
1506576516746,501
1506576516754,502
1506576516762,500
1506576516771,501
1506576516778,498
1506576516787,497
1506576516795,496
1506576516803,493
1506576516811,493
1506576516819,495
1506576516828,498
1506576516836,506
1506576516844,517
1506576516852,535
1506576516860,555
1506576516869,578
1506576516877,603
1506576516885,627
1506576516893,651
1506576516901,670
1506576516905,685
1506576516914,695
1506576516922,697
1506576516930,696
1506576516938,688
1506576516946,675
1506576516954,660
1506576516963,639
1506576516971,620
1506576516979,598
1506576516987,578
1506576516995,560
1506576517004,540
1506576517012,527
1506576517020,513
1506576517028,502
1506576517036,494
1506576517045,486
1506576517053,483
1506576517061,479
1506576517065,478
1506576517073,479
1506576517081,478
1506576517090,482
1506576517098,486
1506576517106,490
1506576517114,497
1506576517122,502
1506576517131,510
1506576517139,514
1506576517147,519
1506576517156,524
1506576517164,526
1506576517172,530
1506576517180,530
1506576517188,530
1506576517196,529
1506576517205,527
1506576517213,526
1506576517221,521
1506576517225,518
1506576517233,513
1506576517241,507
1506576517250,504
1506576517258,500
1506576517266,495
1506576517274,492
1506576517282,488
1506576517291,486
1506576517299,484
1506576517307,483
1506576517315,484
1506576517323,482
1506576517331,484
1506576517340,484
1506576517348,485
1506576517356,487
1506576517364,487
1506576517372,490
1506576517381,491
1506576517389,493
1506576517393,494
1506576517401,495
1506576517409,497
1506576517417,496
1506576517426,497
1506576517434,499
1506576517442,496
1506576517450,497
1506576517458,497
1506576517466,497
1506576517475,497
1506576517483,495
1506576517491,495
1506576517499,494
1506576517507,495
1506576517516,496
1506576517524,493
1506576517532,494
1506576517540,493
1506576517548,491
1506576517553,492
1506576517561,490
1506576517569,491
1506576517577,490
1506576517585,488
1506576517593,488
1506576517602,486
1506576517610,488
1506576517618,488
1506576517626,491
1506576517634,500
1506576517643,510
1506576517651,528
1506576517659,548
1506576517667,569
1506576517675,594
1506576517684,617
1506576517692,640
1506576517700,659
1506576517708,673
1506576517712,684
1506576517720,685
1506576517728,685
1506576517737,674
1506576517745,662
1506576517753,647
1506576517761,627
1506576517769,608
1506576517778,586
1506576517786,566
1506576517794,548
1506576517802,530
1506576517810,515
1506576517819,502
1506576517827,491
1506576517835,483
1506576517843,474
1506576517852,471
1506576517860,468
1506576517868,467
1506576517872,468
1506576517881,469
1506576517889,474
1506576517897,478
1506576517905,482
1506576517913,489
1506576517921,494
1506576517930,500
1506576517938,506
1506576517946,511
1506576517954,517
1506576517962,519
1506576517971,523
1506576517979,523
1506576517987,523
1506576517995,523
1506576518003,520
1506576518012,519
1506576518020,514
1506576518028,510
1506576518032,506
1506576518040,499
1506576518048,495
1506576518056,491
1506576518065,487
1506576518073,484
1506576518081,480
1506576518089,478
1506576518097,475
1506576518106,474
1506576518114,474
1506576518122,473
1506576518131,474
1506576518138,475
1506576518146,474
1506576518155,477
1506576518163,477
1506576518171,480
1506576518179,480
1506576518187,482
1506576518192,483
1506576518200,485
1506576518208,487
1506576518216,488
1506576518224,489
1506576518232,492
1506576518241,490
1506576518249,491
1506576518257,492
1506576518265,491
1506576518273,492
1506576518282,491
1506576518290,491
1506576518298,491
1506576518306,489
1506576518314,491
1506576518322,488
1506576518331,489
1506576518339,488
1506576518347,485
1506576518351,486
1506576518359,484
1506576518368,484
1506576518376,483
1506576518384,485
1506576518392,488
1506576518400,493
1506576518408,504
1506576518417,518
1506576518425,535
1506576518433,557
1506576518441,576
1506576518450,600
1506576518457,621
1506576518466,638
1506576518474,655
1506576518482,662
1506576518490,666
1506576518499,664
1506576518507,656
1506576518511,645
1506576518519,629
1506576518528,613
1506576518536,593
1506576518543,573
1506576518552,554
1506576518560,533
1506576518568,517
1506576518576,503
1506576518584,489
1506576518592,479
1506576518601,469
1506576518609,464
1506576518617,460
1506576518626,458
1506576518634,459
1506576518642,459
1506576518650,463
1506576518658,465
1506576518666,469
1506576518671,476
1506576518679,481
1506576518687,488
1506576518695,494
1506576518704,500
1506576518712,506
1506576518720,509
1506576518728,513
1506576518736,517
1506576518744,517
1506576518752,518
1506576518760,516
1506576518769,513
1506576518776,511
1506576518785,506
1506576518793,503
1506576518801,496
1506576518809,494
1506576518817,488
1506576518826,483
1506576518830,481
1506576518838,476
1506576518846,474
1506576518855,471
1506576518863,468
1506576518871,469
1506576518879,466
1506576518887,467
1506576518896,469
1506576518904,468
1506576518912,471
1506576518920,471
1506576518929,475
1506576518937,476
1506576518945,477
1506576518953,481
1506576518961,480
1506576518970,482
1506576518978,485
1506576518986,485
1506576518994,488
1506576518998,488
1506576519006,489
1506576519015,489
1506576519023,490
1506576519031,492
1506576519039,490
1506576519047,490
1506576519055,490
1506576519063,488
1506576519072,488
1506576519080,485
1506576519088,484
1506576519096,483
1506576519104,481
1506576519112,481
1506576519121,479
1506576519129,482
1506576519137,484
1506576519146,489
1506576519154,501
1506576519158,512
1506576519166,528
1506576519174,547
1506576519182,566
1506576519191,588
1506576519199,604
1506576519208,622
1506576519216,633
1506576519224,640
1506576519232,646
1506576519240,642
1506576519248,635
1506576519257,624
1506576519265,609
1506576519273,593
1506576519281,574
1506576519289,556
1506576519298,536
1506576519306,517
1506576519314,502
1506576519318,485
1506576519326,473
1506576519334,463
1506576519343,454
1506576519351,452
1506576519359,447
1506576519367,445
1506576519375,445
1506576519383,447
1506576519392,451
1506576519400,455
1506576519408,461
1506576519416,468
1506576519424,475
1506576519433,484
1506576519441,489
1506576519449,495
1506576519457,502
1506576519465,504
1506576519473,508
1506576519478,509
1506576519486,509
1506576519494,508
1506576519502,504
1506576519511,503
1506576519518,498
1506576519527,495
1506576519535,491
1506576519543,486
1506576519551,482
1506576519559,478
1506576519568,474
1506576519576,471
1506576519584,467
1506576519592,466
1506576519600,463
1506576519609,462
1506576519617,462
1506576519625,461
1506576519633,463
1506576519637,463
1506576519645,464
1506576519654,466
1506576519662,466
1506576519670,469
1506576519678,469
1506576519686,470
1506576519695,472
1506576519703,473
1506576519711,476
1506576519719,475
1506576519727,476
1506576519735,478
1506576519744,476
1506576519752,480
1506576519760,478
1506576519768,478
1506576519776,479
1506576519785,478
1506576519793,478
1506576519797,476
1506576519805,476
1506576519813,475
1506576519821,473
1506576519830,475
1506576519838,473
1506576519846,474
1506576519854,479
1506576519862,484
1506576519871,494
1506576519879,506
1506576519887,523
1506576519895,543
1506576519904,561
1506576519912,581
1506576519920,597
1506576519928,611
1506576519936,622
1506576519945,626
1506576519953,629
1506576519957,623
1506576519965,617
1506576519973,605
1506576519982,589
1506576519990,573
1506576519998,553
1506576520006,536
1506576520014,519
1506576520022,500
1506576520031,487
1506576520039,472
1506576520047,461
1506576520055,454
1506576520063,447
1506576520072,445
1506576520080,442
1506576520088,441
1506576520096,441
1506576520104,442
1506576520112,447
1506576520117,449
1506576520125,455
1506576520133,461
1506576520141,467
1506576520150,475
1506576520158,481
1506576520166,486
1506576520174,491
1506576520182,493
1506576520190,498
1506576520198,497
1506576520207,498
1506576520215,498
1506576520223,495
1506576520231,494
1506576520239,488
1506576520248,486
1506576520256,483
1506576520264,476
1506576520272,475
1506576520276,470
1506576520284,467
1506576520293,464
1506576520301,460
1506576520309,460
1506576520317,456
1506576520325,458
1506576520334,457
1506576520342,455
1506576520350,458
1506576520358,458
1506576520366,459
1506576520374,461
1506576520383,462
1506576520391,464
1506576520399,464
1506576520407,466
1506576520415,468
1506576520424,467
1506576520432,471
1506576520436,471
1506576520444,473
1506576520452,474
1506576520460,474
1506576520469,476
1506576520477,476
1506576520485,476
1506576520493,477
1506576520501,476
1506576520510,476
1506576520518,474
1506576520526,474
1506576520534,475
1506576520542,473
1506576520550,475
1506576520558,476
1506576520567,479
1506576520575,488
1506576520583,498
1506576520591,512
1506576520595,530
1506576520604,548
1506576520612,568
1506576520620,585
1506576520629,603
1506576520637,616
1506576520645,624
1506576520653,630
1506576520661,628
1506576520670,624
1506576520678,614
1506576520686,602
1506576520694,587
1506576520702,569
1506576520711,551
1506576520719,532
1506576520727,514
1506576520735,499
1506576520743,483
1506576520751,473
1506576520756,463
1506576520764,455
1506576520772,451
1506576520780,447
1506576520788,447
1506576520796,444
1506576520805,445
1506576520813,448
1506576520821,449
1506576520829,455
1506576520837,459
1506576520846,464
1506576520854,471
1506576520862,475
1506576520870,481
1506576520878,488
1506576520887,492
1506576520895,497
1506576520903,499
1506576520911,502
1506576520919,501
1506576520923,501
1506576520932,500
1506576520940,497
1506576520948,497
1506576520956,492
1506576520964,488
1506576520973,485
1506576520981,480
1506576520989,477
1506576520997,472
1506576521005,468
1506576521013,467
1506576521022,463
1506576521030,461
1506576521038,459
1506576521046,458
1506576521054,459
1506576521062,457
1506576521071,459
1506576521079,458
1506576521083,460
1506576521091,462
1506576521099,462
1506576521108,465
1506576521116,466
1506576521124,468
1506576521132,471
1506576521140,472
1506576521148,474
1506576521157,474
1506576521165,476
1506576521173,479
1506576521181,478
1506576521190,480
1506576521198,479
1506576521206,478
1506576521214,479
1506576521222,476
1506576521230,477
1506576521238,475
1506576521243,475
1506576521251,475
1506576521259,475
1506576521267,478
1506576521276,482
1506576521284,490
1506576521292,503
1506576521300,516
1506576521308,536
1506576521317,556
1506576521325,575
1506576521333,596
1506576521341,612
1506576521350,627
1506576521358,636
1506576521366,641
1506576521374,642
1506576521382,634
1506576521391,627
1506576521398,613
1506576521403,596
1506576521411,579
1506576521419,559
1506576521427,541
1506576521436,522
1506576521444,505
1506576521452,491
1506576521460,477
1506576521468,468
1506576521476,459
1506576521485,453
1506576521493,451
1506576521501,447
1506576521509,447
1506576521517,447
1506576521526,448
1506576521534,452
1506576521542,455
1506576521551,461
1506576521558,467
1506576521562,472
1506576521571,480
1506576521579,483
1506576521587,491
1506576521595,494
1506576521603,497
1506576521612,501
1506576521620,501
1506576521628,503
1506576521636,503
1506576521644,502
1506576521652,500
1506576521661,496
1506576521669,495
1506576521677,490
1506576521685,486
1506576521693,483
1506576521702,477
1506576521710,475
1506576521718,471
1506576521722,468
1506576521730,466
1506576521738,463
1506576521747,463
1506576521755,461
1506576521763,461
1506576521771,462
1506576521779,461
1506576521788,463
1506576521796,464
1506576521804,465
1506576521812,468
1506576521820,467
1506576521828,470
1506576521837,471
1506576521845,473
1506576521853,476
1506576521861,475
1506576521869,478
1506576521877,478
1506576521882,477
1506576521890,480
1506576521898,478
1506576521906,480
1506576521914,480
1506576521923,479
1506576521931,480
1506576521939,478
1506576521947,480
1506576521956,479
1506576521964,477
1506576521972,480
1506576521980,477
1506576521988,482
1506576521996,489
1506576522004,498
1506576522013,514
1506576522021,529
1506576522030,551
1506576522038,570
1506576522042,592
1506576522050,611
1506576522058,626
1506576522066,638
1506576522074,644
1506576522083,646
1506576522091,644
1506576522099,635
1506576522107,624
1506576522115,610
1506576522124,592
1506576522132,575
1506576522140,556
1506576522148,539
1506576522157,521
1506576522165,507
1506576522173,495
1506576522181,483
1506576522189,476
1506576522197,469
1506576522201,463
1506576522210,461
1506576522218,458
1506576522226,458
1506576522234,459
1506576522242,461
1506576522251,465
1506576522259,467
1506576522267,473
1506576522275,478
1506576522283,483
1506576522291,490
1506576522300,493
1506576522308,499
1506576522316,503
1506576522324,506
1506576522332,509
1506576522341,509
1506576522349,510
1506576522357,509
1506576522361,507
1506576522369,505
1506576522377,500
1506576522385,497
1506576522394,493
1506576522402,488
1506576522410,486
1506576522418,481
1506576522427,478
1506576522435,473
1506576522443,471
1506576522451,470
1506576522459,466
1506576522467,467
1506576522476,465
1506576522484,465
1506576522492,466
1506576522500,465
1506576522508,467
1506576522517,469
1506576522525,470
1506576522529,474
1506576522537,474
1506576522545,477
1506576522553,479
1506576522561,480
1506576522570,483
1506576522578,483
1506576522586,485
1506576522594,486
1506576522602,486
1506576522611,487
1506576522619,486
1506576522627,486
1506576522635,485
1506576522643,484
1506576522652,485
1506576522660,483
1506576522668,484
1506576522676,484
1506576522685,488
1506576522689,496
1506576522698,505
1506576522705,520
1506576522713,537
1506576522722,557
1506576522730,579
1506576522738,598
1506576522746,617
1506576522754,631
1506576522763,641
1506576522771,649
1506576522779,647
1506576522787,644
1506576522795,638
1506576522804,624
1506576522812,611
1506576522820,592
1506576522828,575
1506576522836,558
1506576522844,539
1506576522848,524
1506576522857,508
1506576522865,496
1506576522873,484
1506576522881,475
1506576522890,471
1506576522898,464
1506576522906,462
1506576522914,461
1506576522922,460
1506576522930,462
1506576522939,464
1506576522947,468
1506576522955,472
1506576522963,477
1506576522971,484
1506576522979,488
1506576522988,495
1506576522996,500
1506576523004,503
1506576523008,509
1506576523016,510
1506576523024,512
1506576523033,513
1506576523041,512
1506576523049,511
1506576523057,509
1506576523065,506
1506576523074,503
1506576523082,499
1506576523090,496
1506576523098,490
1506576523106,486
1506576523115,483
1506576523123,478
1506576523131,477
1506576523139,474
1506576523147,472
1506576523155,470
1506576523163,469
1506576523168,470
1506576523176,469
1506576523184,472
1506576523192,473
1506576523200,473
1506576523209,477
1506576523217,478
1506576523225,479
1506576523233,482
1506576523241,483
1506576523250,486
1506576523258,486
1506576523266,489
1506576523274,489
1506576523282,490
1506576523291,492
1506576523299,490
1506576523307,491
1506576523315,492
1506576523323,491
1506576523327,491
1506576523336,488
1506576523344,488
1506576523352,487
1506576523361,487
1506576523369,490
1506576523377,494
1506576523385,504
1506576523393,516
1506576523401,531
1506576523410,552
1506576523418,570
1506576523426,591
1506576523434,610
1506576523442,626
1506576523451,641
1506576523459,647
1506576523467,652
1506576523475,650
1506576523483,642
1506576523487,633
1506576523496,617
1506576523504,601
1506576523512,584
1506576523520,565
1506576523528,548
1506576523537,530
1506576523545,516
1506576523553,502
1506576523561,491
1506576523569,483
1506576523577,475
1506576523586,471
1506576523594,468
1506576523602,465
1506576523610,467
1506576523619,466
1506576523627,469
1506576523635,473
1506576523643,476
1506576523647,482
1506576523655,488
1506576523663,494
1506576523672,499
1506576523680,504
1506576523688,510
1506576523696,512
1506576523704,516
1506576523713,518
1506576523721,517
1506576523729,518
1506576523737,516
1506576523745,513
1506576523754,511
1506576523762,506
1506576523770,503
1506576523778,497
1506576523786,495
1506576523794,491
1506576523802,486
1506576523807,485
1506576523815,481
1506576523823,478
1506576523831,477
1506576523839,474
1506576523848,474
1506576523856,473
1506576523864,473
1506576523872,474
1506576523880,474
1506576523889,478
1506576523897,477
1506576523905,480
1506576523913,483
1506576523921,483
1506576523930,487
1506576523938,487
1506576523946,490
1506576523954,492
1506576523962,492
1506576523966,495
1506576523974,494
1506576523983,497
1506576523991,497
1506576523999,495
1506576524007,497
1506576524016,495
1506576524024,495
1506576524032,495
1506576524040,492
1506576524049,493
1506576524057,491
1506576524065,494
1506576524073,499
1506576524081,507
1506576524090,520
1506576524098,534
1506576524106,552
1506576524114,573
1506576524122,590
1506576524126,610
1506576524135,625
1506576524143,639
1506576524151,646
1506576524159,649
1506576524167,648
1506576524175,640
1506576524184,631
1506576524192,618
1506576524200,601
1506576524208,586
1506576524216,566
1506576524225,549
1506576524233,533
1506576524241,517
1506576524249,506
1506576524257,495
1506576524266,487
1506576524274,479
1506576524282,472
1506576524290,471
1506576524294,467
1506576524303,468
1506576524311,469
1506576524319,471
1506576524327,477
1506576524335,482
1506576524343,487
1506576524351,494
1506576524360,500
1506576524368,508
1506576524376,512
1506576524384,518
1506576524392,523
1506576524401,523
1506576524409,527
1506576524417,524
1506576524425,524
1506576524434,523
1506576524442,519
1506576524450,516
1506576524454,512
1506576524462,508
1506576524470,504
1506576524478,499
1506576524487,496
1506576524495,491
1506576524503,488
1506576524511,486
1506576524519,483
1506576524527,482
1506576524536,480
1506576524544,480
1506576524552,481
1506576524560,480
1506576524569,483
1506576524576,482
1506576524585,484
1506576524593,486
1506576524601,486
1506576524609,490
1506576524613,491
1506576524622,493
1506576524630,496
1506576524639,497
1506576524646,499
1506576524654,500
1506576524663,502
1506576524671,504
1506576524679,502
1506576524687,507
1506576524696,507
1506576524704,506
1506576524712,505
1506576524720,503
1506576524728,504
1506576524737,500
1506576524745,500
1506576524753,503
1506576524761,505
1506576524769,514
1506576524773,524
1506576524782,538
1506576524790,556
1506576524798,574
1506576524806,594
1506576524814,612
1506576524822,628
1506576524831,643
1506576524839,650
1506576524847,656
1506576524855,653
1506576524863,648
1506576524871,640
1506576524879,625
1506576524887,611
1506576524896,593
1506576524904,577
1506576524912,559
1506576524920,542
1506576524928,528
1506576524933,513
1506576524941,502
1506576524949,493
1506576524957,484
1506576524965,480
1506576524973,475
1506576524982,472
1506576524990,473
1506576524998,472
1506576525006,476
1506576525015,479
1506576525022,484
1506576525031,490
1506576525039,495
1506576525048,504
1506576525056,509
1506576525064,513
1506576525073,520
1506576525081,522
1506576525089,526
1506576525093,527
1506576525101,528
1506576525109,528
1506576525118,525
1506576525126,524
1506576525134,520
1506576525142,516
1506576525151,514
1506576525158,508
1506576525167,506
1506576525175,501
1506576525183,498
1506576525191,495
1506576525200,491
1506576525208,490
1506576525216,486
1506576525224,485
1506576525232,486
1506576525240,484
1506576525248,487
1506576525253,486
1506576525261,487
1506576525269,491
1506576525277,490
1506576525285,494
1506576525294,495
1506576525302,497
1506576525310,499
1506576525318,500
1506576525326,503
1506576525334,502
1506576525343,503
1506576525351,504
1506576525359,502
1506576525367,503
1506576525375,502
1506576525384,501
1506576525392,503
1506576525400,505
1506576525408,511
1506576525412,518
1506576525420,530
1506576525429,547
1506576525437,563
1506576525445,585
1506576525453,603
1506576525461,622
1506576525470,639
1506576525478,650
1506576525486,659
1506576525494,663
1506576525502,660
1506576525510,654
1506576525518,643
1506576525527,631
1506576525535,615
1506576525544,599
1506576525552,582
1506576525560,563
1506576525568,548
1506576525572,532
1506576525580,518
1506576525589,508
1506576525597,497
1506576525605,491
1506576525613,483
1506576525621,479
1506576525630,476
1506576525638,473
1506576525646,475
1506576525654,476
1506576525663,478
1506576525671,483
1506576525679,487
1506576525687,495
1506576525695,500
1506576525703,506
1506576525711,513
1506576525720,518
1506576525728,523
1506576525732,525
1506576525740,528
1506576525748,530
1506576525756,529
1506576525765,528
1506576525773,526
1506576525781,522
1506576525789,519
1506576525797,513
1506576525806,510
1506576525814,505
1506576525822,500
1506576525830,496
1506576525838,491
1506576525846,490
1506576525855,486
1506576525863,484
1506576525871,484
1506576525879,482
1506576525887,483
1506576525896,483
1506576525900,485
1506576525908,488
1506576525916,487
1506576525924,491
1506576525932,492
1506576525941,494
1506576525949,496
1506576525957,496
1506576525965,500
1506576525973,501
1506576525982,501
1506576525990,502
1506576525998,501
1506576526006,502
1506576526014,500
1506576526022,501
1506576526031,502
1506576526039,502
1506576526047,508
1506576526055,515
1506576526059,525
1506576526067,539
1506576526076,555
1506576526084,577
1506576526092,598
1506576526100,619
1506576526109,641
1506576526117,657
1506576526125,673
1506576526133,681
1506576526141,684
1506576526149,683
1506576526158,675
1506576526166,665
1506576526174,650
1506576526182,632
1506576526190,614
1506576526198,594
1506576526207,577
1506576526215,558
1506576526219,542
1506576526227,528
1506576526235,514
1506576526244,506
1506576526252,497
1506576526260,489
1506576526269,485
1506576526277,480
1506576526285,478
1506576526293,477
1506576526301,477
1506576526310,479
1506576526318,481
1506576526326,486
1506576526334,490
1506576526342,495
1506576526350,503
1506576526359,506
1506576526367,512
1506576526375,518
1506576526379,520
1506576526387,524
1506576526395,524
1506576526404,525
1506576526412,524
1506576526420,522
1506576526428,520
1506576526436,515
1506576526445,512
1506576526453,507
1506576526461,501
1506576526469,498
1506576526477,492
1506576526485,488
1506576526494,484
1506576526502,480
1506576526510,478
1506576526518,475
1506576526526,474
1506576526534,474
1506576526539,473
1506576526547,475
1506576526555,474
1506576526563,476
1506576526571,478
1506576526580,480
1506576526588,482
1506576526596,483
1506576526604,485
1506576526612,486
1506576526621,488
1506576526629,490
1506576526637,490
1506576526645,491
1506576526653,494
1506576526661,493
1506576526670,496
1506576526678,495
1506576526686,496
1506576526694,495
1506576526698,495
1506576526707,495
1506576526715,493
1506576526723,493
1506576526731,492
1506576526739,489
1506576526747,488
1506576526756,485
1506576526764,484
1506576526772,483
1506576526780,482
1506576526788,484
1506576526796,486
1506576526805,494
1506576526813,506
1506576526821,521
1506576526829,543
1506576526837,564
1506576526846,592
1506576526854,617
1506576526858,639
1506576526866,661
1506576526874,676
1506576526882,687
1506576526891,692
1506576526899,690
1506576526907,684
1506576526915,670
1506576526924,656
1506576526932,638
1506576526940,617
1506576526948,597
1506576526957,574
1506576526965,556
1506576526973,538
1506576526981,521
1506576526990,509
1506576526998,497
1506576527006,488
1506576527014,480
1506576527018,474
1506576527026,471
1506576527035,467
1506576527043,468
1506576527051,468
1506576527059,468
1506576527067,472
1506576527075,476
1506576527083,479
1506576527092,486
1506576527100,492
1506576527108,498
1506576527116,501
1506576527124,505
1506576527133,509
1506576527141,511
1506576527149,513
1506576527157,512
1506576527165,512
1506576527173,512
1506576527178,507
1506576527186,506
1506576527194,501
1506576527202,499
1506576527211,494
1506576527219,490
1506576527227,486
1506576527235,481
1506576527243,479
1506576527251,476
1506576527259,473
1506576527268,474
1506576527276,472
1506576527284,472
1506576527292,472
1506576527300,473
1506576527308,474
1506576527316,474
1506576527325,476
1506576527333,477
1506576527337,478
1506576527345,481
1506576527353,481
1506576527362,483
1506576527370,484
1506576527378,484
1506576527386,486
1506576527395,485
1506576527402,486
1506576527410,486
1506576527419,486
1506576527427,486
1506576527435,484
1506576527443,485
1506576527451,483
1506576527459,482
1506576527468,482
1506576527476,481
1506576527485,481
1506576527493,480
1506576527500,479
1506576527504,479
1506576527513,477
1506576527521,477
1506576527529,477
1506576527538,475
1506576527547,476
1506576527555,474
1506576527563,474
1506576527571,475
1506576527579,474
1506576527587,478
1506576527596,483
1506576527604,491
1506576527612,504
1506576527620,522
1506576527628,544
1506576527636,566
1506576527645,593
1506576527653,616
1506576527661,637
1506576527665,657
1506576527673,669
1506576527681,676
1506576527690,680
1506576527698,674
1506576527706,666
1506576527714,651
1506576527722,635
1506576527731,614
1506576527739,593
1506576527747,574
1506576527755,551
1506576527763,534
1506576527771,518
1506576527780,501
1506576527788,490
1506576527796,479
1506576527804,473
1506576527812,467
1506576527820,461
1506576527824,460
1506576527832,457
1506576527840,460
1506576527849,462
1506576527857,463
1506576527865,469
1506576527873,472
1506576527882,478
1506576527891,483
1506576527899,488
1506576527907,494
1506576527915,498
1506576527923,503
1506576527932,506
1506576527940,506
1506576527948,509
1506576527956,507
1506576527964,508
1506576527972,507
1506576527980,503
1506576527985,501
1506576527993,497
1506576528001,493
1506576528009,490
1506576528017,484
1506576528026,481
1506576528034,475
1506576528042,473
1506576528050,471
1506576528058,468
1506576528066,468
1506576528075,466
1506576528083,465
1506576528091,467
1506576528099,466
1506576528107,468
1506576528115,469
1506576528123,471
1506576528131,473
1506576528139,474
1506576528144,475
1506576528152,477
1506576528160,478
1506576528168,481
1506576528177,480
1506576528185,483
1506576528193,482
1506576528201,482
1506576528210,482
1506576528218,483
1506576528225,484
1506576528234,482
1506576528242,483
1506576528250,482
1506576528258,480
1506576528267,482
1506576528275,479
1506576528283,479
1506576528291,479
1506576528299,478
1506576528304,478
1506576528312,477
1506576528320,477
1506576528328,477
1506576528336,475
1506576528344,476
1506576528353,475
1506576528361,475
1506576528369,475
1506576528377,473
1506576528385,475
1506576528393,475
1506576528402,480
1506576528411,486
1506576528418,494
1506576528426,510
1506576528435,527
1506576528443,549
1506576528451,573
1506576528459,595
1506576528463,618
1506576528471,637
1506576528479,656
1506576528488,666
1506576528496,670
1506576528505,671
1506576528513,665
1506576528521,654
1506576528530,640
1506576528538,621
1506576528546,602
1506576528554,582
1506576528562,561
1506576528570,542
1506576528578,524
1506576528587,509
1506576528595,494
1506576528603,484
1506576528611,475
1506576528619,466
1506576528623,463
1506576528632,459
1506576528640,458
1506576528648,459
1506576528656,461
1506576528664,465
1506576528673,468
1506576528681,473
1506576528689,479
1506576528698,484
1506576528705,492
1506576528714,496
1506576528722,502
1506576528730,508
1506576528738,512
1506576528746,515
1506576528755,516
1506576528763,517
1506576528771,517
1506576528779,516
1506576528783,515
1506576528791,510
1506576528799,507
1506576528808,504
1506576528816,497
1506576528824,495
1506576528832,490
1506576528840,486
1506576528848,483
1506576528857,479
1506576528865,477
1506576528873,473
1506576528881,473
1506576528890,474
1506576528898,472
1506576528906,474
1506576528914,473
1506576528922,475
1506576528931,477
1506576528939,476
1506576528943,479
1506576528951,480
1506576528959,482
1506576528967,483
1506576528975,485
1506576528984,487
1506576528992,488
1506576529000,489
1506576529009,491
1506576529017,489
1506576529025,491
1506576529033,494
1506576529041,493
1506576529050,493
1506576529058,491
1506576529066,492
1506576529074,491
1506576529082,490
1506576529091,490
1506576529099,486
1506576529103,488
1506576529111,487
1506576529119,486
1506576529127,486
1506576529136,485
1506576529144,486
1506576529152,488
1506576529160,494
1506576529168,503
1506576529177,514
1506576529185,531
1506576529193,549
1506576529201,569
1506576529209,591
1506576529217,610
1506576529226,629
1506576529234,642
1506576529242,651
1506576529250,655
1506576529258,654
1506576529266,648
1506576529271,638
1506576529279,623
1506576529287,607
1506576529295,588
1506576529303,570
1506576529312,550
1506576529320,531
1506576529328,515
1506576529336,498
1506576529344,487
1506576529352,475
1506576529361,467
1506576529369,462
1506576529377,456
1506576529385,456
1506576529393,455
1506576529402,456
1506576529410,460
1506576529418,463
1506576529426,470
1506576529431,475
1506576529438,483
1506576529447,490
1506576529455,496
1506576529463,505
1506576529471,511
1506576529479,515
1506576529487,521
1506576529496,522
1506576529504,525
1506576529512,525
1506576529520,523
1506576529528,521
1506576529537,516
1506576529545,513
1506576529553,509
1506576529561,504
1506576529569,499
1506576529577,493
1506576529586,491
1506576529590,485
1506576529598,482
1506576529606,480
1506576529614,476
1506576529623,476
1506576529631,474
1506576529639,473
1506576529647,474
1506576529655,475
1506576529663,477
1506576529672,477
1506576529680,479
1506576529688,482
1506576529697,482
1506576529705,485
1506576529713,486
1506576529721,488
1506576529729,491
1506576529738,491
1506576529746,494
1506576529750,495
1506576529758,494
1506576529766,495
1506576529774,495
1506576529783,496
1506576529791,495
1506576529799,494
1506576529807,495
1506576529815,492
1506576529824,493
1506576529832,494
1506576529840,496
1506576529848,503
1506576529856,510
1506576529864,525
1506576529873,539
1506576529881,558
1506576529889,577
1506576529897,594
1506576529905,614
1506576529910,629
1506576529918,639
1506576529926,648
1506576529934,648
1506576529942,645
1506576529951,638
1506576529959,626
1506576529967,612
1506576529975,595
1506576529983,578
1506576529991,559
1506576530000,542
1506576530008,525
1506576530016,508
1506576530024,495
1506576530032,483
1506576530041,474
1506576530049,467
1506576530057,460
1506576530065,458
1506576530070,456
1506576530077,457
1506576530086,459
1506576530094,460
1506576530102,467
1506576530110,472
1506576530118,477
1506576530127,485
1506576530135,492
1506576530143,500
1506576530151,504
1506576530159,510
1506576530167,515
1506576530176,516
1506576530184,520
1506576530192,521
1506576530200,520
1506576530208,520
1506576530217,516
1506576530225,514
1506576530229,509
1506576530237,504
1506576530245,501
1506576530253,495
1506576530262,492
1506576530270,487
1506576530278,484
1506576530286,481
1506576530294,477
1506576530302,476
1506576530311,474
1506576530319,472
1506576530327,473
1506576530335,472
1506576530343,474
1506576530352,474
1506576530360,475
1506576530368,477
1506576530376,478
1506576530384,481
1506576530388,481
1506576530397,482
1506576530405,486
1506576530414,485
1506576530422,487
1506576530430,488
1506576530438,488
1506576530446,489
1506576530454,488
1506576530463,489
1506576530471,489
1506576530479,490
1506576530487,496
1506576530495,500
1506576530503,512
1506576530512,526
1506576530520,542
1506576530528,562
1506576530536,581
1506576530544,603
1506576530548,620
1506576530557,636
1506576530565,647
1506576530573,652
1506576530581,655
1506576530590,650
1506576530598,640
1506576530606,629
1506576530614,612
1506576530623,595
1506576530631,575
1506576530639,555
1506576530647,537
1506576530655,519
1506576530663,504
1506576530671,490
1506576530679,478
1506576530688,470
1506576530696,461
1506576530704,458
1506576530708,455
1506576530716,452
1506576530725,454
1506576530733,454
1506576530741,458
1506576530749,462
1506576530757,466
1506576530765,472
1506576530774,477
1506576530782,484
1506576530790,490
1506576530798,496
1506576530806,502
1506576530815,505
1506576530823,510
1506576530831,513
1506576530839,514
1506576530847,516
1506576530856,514
1506576530864,514
1506576530872,510
1506576530876,506
1506576530884,502
1506576530892,496
1506576530901,492
1506576530909,488
1506576530917,483
1506576530925,480
1506576530933,475
1506576530941,472
1506576530950,470
1506576530958,468
1506576530966,467
1506576530974,465
1506576530982,466
1506576530991,467
1506576530999,468
1506576531007,471
1506576531015,471
1506576531023,475
1506576531032,477
1506576531036,478
1506576531044,481
1506576531052,482
1506576531060,485
1506576531068,485
1506576531076,485
1506576531085,487
1506576531093,486
1506576531101,487
1506576531109,488
1506576531117,487
1506576531126,493
1506576531134,497
1506576531142,507
1506576531150,520
1506576531158,537
1506576531167,557
1506576531175,577
1506576531183,599
1506576531191,619
1506576531195,635
1506576531203,649
1506576531211,656
1506576531220,659
1506576531228,657
1506576531237,649
1506576531244,638
1506576531252,621
1506576531261,604
1506576531269,585
1506576531277,565
1506576531285,547
1506576531293,527
1506576531302,512
1506576531310,497
1506576531318,484
1506576531327,476
1506576531335,468
1506576531343,463
1506576531351,459
1506576531355,457
1506576531363,458
1506576531372,456
1506576531380,460
1506576531388,462
1506576531396,466
1506576531404,472
1506576531413,476
1506576531421,482
1506576531429,488
1506576531437,493
1506576531445,499
1506576531453,503
1506576531462,507
1506576531470,509
1506576531478,510
1506576531486,512
1506576531494,510
1506576531503,510
1506576531511,509
1506576531515,505
1506576531523,503
1506576531531,498
1506576531540,493
1506576531547,489
1506576531556,484
1506576531564,481
1506576531572,475
1506576531581,474
1506576531589,471
1506576531597,467
1506576531605,468
1506576531614,465
1506576531622,464
1506576531630,465
1506576531638,464
1506576531646,466
1506576531654,467
1506576531662,470
1506576531671,473
1506576531675,474
1506576531683,478
1506576531691,478
1506576531699,482
1506576531707,483
1506576531716,483
1506576531724,486
1506576531732,486
1506576531740,485
1506576531748,485
1506576531757,484
1506576531765,485
1506576531773,487
1506576531781,492
1506576531789,498
1506576531797,508
1506576531806,524
1506576531814,541
1506576531822,562
1506576531830,585
1506576531834,605
1506576531843,625
1506576531851,640
1506576531859,652
1506576531867,657
1506576531875,658
1506576531883,654
1506576531892,644
1506576531900,631
1506576531908,614
1506576531916,595
1506576531924,577
1506576531933,557
1506576531941,539
1506576531949,521
1506576531957,505
1506576531965,494
1506576531973,482
1506576531982,474
1506576531990,467
1506576531994,460
1506576532002,459
1506576532011,455
1506576532019,456
1506576532027,457
1506576532035,458
1506576532044,462
1506576532052,464
1506576532060,470
1506576532068,475
1506576532076,479
1506576532085,487
1506576532093,490
1506576532101,496
1506576532109,501
1506576532117,502
1506576532125,506
1506576532134,505
1506576532142,506
1506576532150,505
1506576532154,501
1506576532162,500
1506576532170,495
1506576532179,493
1506576532187,489
1506576532195,484
1506576532203,481
1506576532211,477
1506576532220,474
1506576532228,472
1506576532236,469
1506576532244,469
1506576532252,466
1506576532260,466
1506576532269,466
1506576532277,465
1506576532285,467
1506576532293,468
1506576532301,471
1506576532310,472
1506576532314,473
1506576532322,477
1506576532330,478
1506576532338,481
1506576532346,482
1506576532355,483
1506576532363,485
1506576532371,485
1506576532379,485
1506576532387,485
1506576532396,484
1506576532404,485
1506576532412,483
1506576532420,484
1506576532428,486
1506576532437,489
1506576532445,498
1506576532453,508
1506576532461,524
1506576532469,544
1506576532473,564
1506576532481,588
1506576532490,608
1506576532498,628
1506576532506,643
1506576532514,653
1506576532522,659
1506576532531,658
1506576532539,652
1506576532547,643
1506576532555,627
1506576532563,612
1506576532572,594
1506576532580,574
1506576532588,555
1506576532596,536
1506576532604,520
1506576532612,505
1506576532621,493
1506576532629,484
1506576532637,475
1506576532641,470
1506576532649,464
1506576532657,460
1506576532666,459
1506576532674,458
1506576532682,460
1506576532691,462
1506576532699,465
1506576532707,470
1506576532715,474
1506576532723,482
1506576532732,486
1506576532740,491
1506576532748,497
1506576532756,500
1506576532764,505
1506576532773,507
1506576532781,508
1506576532789,510
1506576532797,508
1506576532801,508
1506576532810,504
1506576532818,501
1506576532826,498
1506576532834,492
1506576532842,489
1506576532850,484
1506576532859,480
1506576532867,479
1506576532875,474
1506576532883,473
1506576532892,470
1506576532900,469
1506576532908,468
1506576532916,466
1506576532924,468
1506576532932,468
1506576532940,470
1506576532949,473
1506576532957,472
1506576532961,475
1506576532970,475
1506576532977,476
1506576532985,480
1506576532994,480
1506576533002,482
1506576533010,481
1506576533018,484
1506576533026,485
1506576533035,485
1506576533043,487
1506576533051,486
1506576533059,485
1506576533067,486
1506576533076,485
1506576533084,485
1506576533092,484
1506576533100,483
1506576533108,484
1506576533116,484
1506576533120,489
1506576533129,495
1506576533137,507
1506576533145,524
1506576533153,542
1506576533161,566
1506576533170,587
1506576533178,608
1506576533186,629
1506576533194,643
1506576533202,655
1506576533211,659
1506576533219,659
1506576533227,654
1506576533235,642
1506576533243,629
1506576533251,611
1506576533260,592
1506576533268,574
1506576533276,553
1506576533280,536
1506576533288,519
1506576533296,503
1506576533304,492
1506576533313,481
1506576533320,474
1506576533329,466
1506576533337,461
1506576533345,459
1506576533353,456
1506576533361,458
1506576533370,459
1506576533379,461
1506576533387,466
1506576533395,470
1506576533403,476
1506576533411,481
1506576533419,487
1506576533427,494
1506576533435,498
1506576533440,505
1506576533448,508
1506576533456,510
1506576533464,513
1506576533472,511
1506576533481,510
1506576533489,507
1506576533497,504
1506576533506,501
1506576533514,496
1506576533522,493
1506576533530,488
1506576533538,484
1506576533546,481
1506576533555,476
1506576533563,474
1506576533571,471
1506576533579,469
1506576533587,468
1506576533595,467
1506576533599,468
1506576533607,468
1506576533616,469
1506576533624,471
1506576533632,471
1506576533640,475
1506576533648,476
1506576533656,478
1506576533665,480
1506576533673,480
1506576533682,483
1506576533690,486
1506576533698,487
1506576533706,489
1506576533714,489
1506576533722,492
1506576533731,491
1506576533739,492
1506576533747,493
1506576533755,491
1506576533759,492
1506576533767,491
1506576533776,490
1506576533784,491
1506576533792,488
1506576533800,488
1506576533809,487
1506576533817,487
1506576533825,489
1506576533833,491
1506576533841,500
1506576533850,509
1506576533858,523
1506576533866,545
1506576533874,564
1506576533883,587
1506576533891,608
1506576533898,627
1506576533906,643
1506576533915,654
1506576533919,661
1506576533927,660
1506576533935,656
1506576533943,647
1506576533952,631
1506576533960,616
1506576533968,598
1506576533976,579
1506576533985,560
1506576533993,540
1506576534001,523
1506576534009,507
1506576534017,493
1506576534026,482
1506576534034,474
1506576534042,469
1506576534050,463
1506576534059,460
1506576534067,460
1506576534075,460
1506576534079,464
1506576534087,468
1506576534095,473
1506576534103,480
1506576534111,486
1506576534119,493
1506576534127,500
1506576534136,505
1506576534144,511
1506576534152,514
1506576534160,520
1506576534169,522
1506576534177,522
1506576534185,522
1506576534193,519
1506576534201,519
1506576534210,514
1506576534218,509
1506576534226,507
1506576534234,501
1506576534238,497
1506576534246,492
1506576534255,487
1506576534263,484
1506576534271,478
1506576534280,476
1506576534288,474
1506576534296,472
1506576534304,473
1506576534312,472
1506576534321,474
1506576534329,473
1506576534337,474
1506576534345,477
1506576534353,477
1506576534362,482
1506576534370,483
1506576534378,484
1506576534386,489
1506576534394,489
1506576534402,492
1506576534407,493
1506576534415,493
1506576534423,496
1506576534431,494
1506576534439,495
1506576534448,495
1506576534456,494
1506576534464,494
1506576534472,492
1506576534480,491
1506576534488,491
1506576534497,489
1506576534505,491
1506576534513,492
1506576534521,497
1506576534529,505
1506576534538,517
1506576534546,536
1506576534554,552
1506576534562,574
1506576534566,594
1506576534574,613
1506576534582,631
1506576534591,643
1506576534599,651
1506576534607,653
1506576534615,650
1506576534623,644
1506576534632,630
1506576534640,615
1506576534648,597
1506576534656,579
1506576534664,560
1506576534673,541
1506576534681,525
1506576534689,510
1506576534698,495
1506576534706,485
1506576534714,475
1506576534722,469
1506576534726,463
1506576534734,459
1506576534743,459
1506576534751,457
1506576534759,461
1506576534767,462
1506576534775,467
1506576534783,474
1506576534792,479
1506576534800,485
1506576534808,492
1506576534816,497
1506576534824,503
1506576534833,507
1506576534841,511
1506576534849,513
1506576534857,514
1506576534865,517
1506576534874,514
1506576534882,513
1506576534886,512
1506576534894,507
1506576534902,504
1506576534911,499
1506576534919,496
1506576534927,492
1506576534935,486
1506576534943,484
1506576534951,479
1506576534959,477
1506576534968,474
1506576534976,472
1506576534984,472
1506576534992,471
1506576535000,471
1506576535009,472
1506576535017,471
1506576535025,474
1506576535033,474
1506576535041,477
1506576535045,479
1506576535054,480
1506576535062,483
1506576535070,484
1506576535078,486
1506576535086,486
1506576535095,486
1506576535103,488
1506576535111,488
1506576535119,488
1506576535127,488
1506576535136,486
1506576535144,488
1506576535152,487
1506576535160,488
1506576535168,491
1506576535176,494
1506576535185,503
1506576535193,514
1506576535201,530
1506576535205,548
1506576535213,567
1506576535221,590
1506576535230,608
1506576535238,625
1506576535246,638
1506576535254,645
1506576535262,650
1506576535271,647
1506576535279,640
1506576535287,630
1506576535295,613
1506576535303,598
1506576535312,579
1506576535320,561
1506576535328,542
1506576535336,525
1506576535344,510
1506576535352,495
1506576535360,485
1506576535365,476
1506576535373,466
1506576535381,463
1506576535389,457
1506576535397,455
1506576535406,454
1506576535414,454
1506576535422,456
1506576535430,457
1506576535438,462
1506576535447,466
1506576535455,471
1506576535463,478
1506576535471,482
1506576535479,488
1506576535487,493
1506576535496,497
1506576535504,502
1506576535512,504
1506576535521,506
1506576535525,507
1506576535533,505
1506576535541,504
1506576535549,500
1506576535557,498
1506576535566,495
1506576535574,490
1506576535582,488
1506576535590,484
1506576535598,480
1506576535607,477
1506576535615,472
1506576535623,471
1506576535631,468
1506576535639,468
1506576535648,467
1506576535656,466
1506576535664,468
1506576535672,466
1506576535680,468
1506576535684,470
1506576535693,470
1506576535701,472
1506576535709,474
1506576535717,476
1506576535725,477
1506576535733,478
1506576535742,480
1506576535750,480
1506576535758,482
1506576535766,484
1506576535774,483
1506576535783,486
1506576535791,486
1506576535799,486
1506576535807,486
1506576535815,484
1506576535824,485
1506576535832,482
1506576535840,483
1506576535844,484
1506576535852,485
1506576535861,491
1506576535869,497
1506576535877,510
1506576535885,526
1506576535894,544
1506576535902,567
1506576535910,587
1506576535918,608
1506576535926,626
1506576535935,639
1506576535943,649
1506576535951,653
1506576535959,651
1506576535967,645
1506576535975,633
1506576535984,620
1506576535992,602
1506576536000,585
1506576536004,566
1506576536012,546
1506576536020,531
1506576536029,513
1506576536037,499
1506576536045,488
1506576536053,477
1506576536061,471
1506576536070,464
1506576536078,459
1506576536086,457
1506576536094,455
1506576536102,456
1506576536110,457
1506576536119,460
1506576536127,463
1506576536135,465
1506576536143,471
1506576536151,475
1506576536159,480
1506576536168,486
1506576536172,490
1506576536180,496
1506576536188,499
1506576536196,502
1506576536205,504
1506576536213,502
1506576536221,504
1506576536229,501
1506576536237,500
1506576536245,497
1506576536254,493
1506576536262,490
1506576536270,486
1506576536278,482
1506576536286,478
1506576536295,474
1506576536303,473
1506576536311,469
1506576536319,467
1506576536327,467
1506576536332,465
1506576536340,466
1506576536348,465
1506576536356,465
1506576536364,467
1506576536373,466
1506576536381,469
1506576536389,469
1506576536397,471
1506576536405,474
1506576536413,474
1506576536421,477
1506576536429,477
1506576536438,477
1506576536446,479
1506576536454,479
1506576536462,481
1506576536470,481
1506576536479,482
1506576536487,482
1506576536491,482
1506576536499,484
1506576536507,482
1506576536515,482
1506576536524,483
1506576536532,480
1506576536540,480
1506576536548,479
1506576536556,480
1506576536564,482
1506576536573,484
1506576536581,491
1506576536590,501
1506576536598,516
1506576536606,536
1506576536614,556
1506576536622,579
1506576536631,600
1506576536639,620
1506576536647,637
1506576536651,647
1506576536659,654
1506576536667,655
1506576536676,650
1506576536684,641
1506576536692,627
1506576536700,613
1506576536708,593
1506576536716,574
1506576536725,555
1506576536733,535
1506576536741,519
1506576536750,503
1506576536758,491
1506576536766,479
1506576536774,470
1506576536782,466
1506576536790,459
1506576536798,457
1506576536806,456
1506576536811,454
1506576536819,457
1506576536827,458
1506576536835,460
1506576536843,465
1506576536852,468
1506576536860,473
1506576536868,477
1506576536877,481
1506576536885,486
1506576536893,490
1506576536901,494
1506576536909,496
1506576536918,496
1506576536926,497
1506576536934,496
1506576536942,496
1506576536951,494
1506576536958,492
1506576536966,489
1506576536971,485
1506576536979,483
1506576536987,478
1506576536995,476
1506576537003,473
1506576537012,468
1506576537020,467
1506576537028,464
1506576537036,462
1506576537044,462
1506576537053,460
1506576537061,461
1506576537069,460
1506576537077,461
1506576537085,462
1506576537094,462
1506576537102,465
1506576537110,466
1506576537118,469
1506576537126,472
1506576537130,473
1506576537138,475
1506576537147,477
1506576537155,477
1506576537163,480
1506576537171,479
1506576537179,482
1506576537188,481
1506576537196,482
1506576537204,483
1506576537212,481
1506576537220,483
1506576537229,481
1506576537237,482
1506576537245,483
1506576537253,481
1506576537261,482
1506576537270,480
1506576537278,480
1506576537286,480
1506576537290,478
1506576537298,478
1506576537306,477
1506576537315,477
1506576537323,478
1506576537331,478
1506576537339,483
1506576537347,490
1506576537356,501
1506576537364,517
1506576537372,536
1506576537380,559
1506576537388,581
1506576537396,604
1506576537405,624
1506576537413,639
1506576537421,652
1506576537429,657
1506576537437,657
1506576537445,654
1506576537450,643
1506576537458,629
1506576537466,612
1506576537474,593
1506576537482,574
1506576537491,552
1506576537499,535
1506576537507,516
1506576537515,499
1506576537523,487
1506576537532,474
1506576537540,466
1506576537548,460
1506576537557,455
1506576537565,452
1506576537573,450
1506576537581,451
1506576537589,450
1506576537597,454
1506576537606,458
1506576537610,461
1506576537618,468
1506576537626,474
1506576537634,479
1506576537642,486
1506576537651,490
1506576537659,496
1506576537667,499
1506576537675,502
1506576537683,505
1506576537692,505
1506576537700,505
1506576537708,505
1506576537716,503
1506576537724,501
1506576537733,496
1506576537741,494
1506576537749,490
1506576537757,485
1506576537765,483
1506576537770,479
1506576537777,476
1506576537786,472
1506576537794,470
1506576537802,468
1506576537810,465
1506576537818,466
1506576537827,465
1506576537835,464
1506576537843,466
1506576537851,465
1506576537859,468
1506576537868,469
1506576537876,470
1506576537884,472
1506576537892,474
1506576537900,478
1506576537909,479
1506576537917,481
1506576537925,484
1506576537933,484
1506576537937,486
1506576537945,487
1506576537953,488
1506576537962,489
1506576537970,488
1506576537978,489
1506576537986,488
1506576537994,488
1506576538003,488
1506576538011,486
1506576538019,486
1506576538027,485
1506576538035,484
1506576538043,485
1506576538051,486
1506576538059,491
1506576538068,499
1506576538076,510
1506576538084,525
1506576538092,542
1506576538096,563
1506576538104,581
1506576538113,599
1506576538121,617
1506576538129,626
1506576538138,634
1506576538146,637
1506576538154,634
1506576538162,628
1506576538171,617
1506576538179,603
1506576538187,585
1506576538195,566
1506576538203,549
1506576538211,529
1506576538220,513
1506576538228,497
1506576538236,482
1506576538245,472
1506576538253,462
1506576538257,455
1506576538265,452
1506576538273,448
1506576538281,449
1506576538290,449
1506576538298,452
1506576538306,455
1506576538314,460
1506576538322,468
1506576538331,473
1506576538339,482
1506576538347,488
1506576538355,493
1506576538363,499
1506576538371,503
1506576538380,508
1506576538388,511
1506576538396,512
1506576538404,514
1506576538412,512
1506576538416,512
1506576538425,510
1506576538433,506
1506576538441,504
1506576538449,499
1506576538457,495
1506576538466,491
1506576538474,486
1506576538482,483
1506576538490,478
1506576538498,478
1506576538507,474
1506576538515,472
1506576538523,472
1506576538531,470
1506576538539,471
1506576538547,472
1506576538556,471
1506576538564,474
1506576538572,474
1506576538576,476
1506576538584,477
1506576538593,479
1506576538601,481
1506576538609,481
1506576538617,482
1506576538625,485
1506576538633,484
1506576538642,487
1506576538650,486
1506576538658,486
1506576538666,486
1506576538674,485
1506576538683,487
1506576538691,486
1506576538699,487
1506576538707,491
1506576538715,497
1506576538723,507
1506576538732,518
1506576538736,535
1506576538744,554
1506576538752,572
1506576538760,592
1506576538768,607
1506576538777,622
1506576538785,632
1506576538793,637
1506576538801,639
1506576538810,634
1506576538818,627
1506576538826,615
1506576538834,598
1506576538842,584
1506576538850,565
1506576538858,546
1506576538867,529
1506576538875,513
1506576538883,499
1506576538891,485
1506576538895,474
1506576538904,465
1506576538912,457
1506576538920,455
1506576538928,450
1506576538937,450
1506576538945,452
1506576538953,453
1506576538961,458
1506576538970,462
1506576538978,468
1506576538986,475
1506576538994,481
1506576539002,490
1506576539010,494
1506576539019,500
1506576539027,506
1506576539035,511
1506576539043,514
1506576539051,515
1506576539056,516
1506576539064,515
1506576539072,513
1506576539080,511
1506576539088,507
1506576539096,503
1506576539105,499
1506576539113,495
1506576539121,493
1506576539129,487
1506576539137,484
1506576539145,481
1506576539154,477
1506576539162,475
1506576539170,473
1506576539178,472
1506576539186,471
1506576539195,470
1506576539203,472
1506576539211,471
1506576539215,473
1506576539223,474
1506576539232,476
1506576539240,480
1506576539248,480
1506576539256,483
1506576539265,487
1506576539272,488
1506576539281,490
1506576539289,490
1506576539297,492
1506576539305,491
1506576539313,491
1506576539322,492
1506576539330,490
1506576539338,492
1506576539346,494
1506576539354,498
1506576539362,507
1506576539371,517
1506576539375,532
1506576539383,550
1506576539392,568
1506576539399,588
1506576539407,605
1506576539416,622
1506576539424,634
1506576539432,641
1506576539440,646
1506576539449,643
1506576539457,636
1506576539465,627
1506576539473,613
1506576539481,597
1506576539489,578
1506576539497,560
1506576539506,542
1506576539514,524
1506576539522,510
1506576539530,494
1506576539538,483
1506576539542,475
1506576539551,466
1506576539559,461
1506576539567,458
1506576539575,458
1506576539583,458
1506576539592,459
1506576539600,463
1506576539608,466
1506576539617,470
1506576539625,476
1506576539633,483
1506576539641,490
1506576539649,494
1506576539658,501
1506576539666,505
1506576539674,509
1506576539682,513
1506576539690,513
1506576539698,515
1506576539703,516
1506576539711,514
1506576539719,513
1506576539727,510
1506576539735,507
1506576539744,503
1506576539752,498
1506576539760,495
1506576539768,489
1506576539776,485
1506576539784,483
1506576539793,478
1506576539801,477
1506576539809,474
1506576539817,472
1506576539826,472
1506576539834,471
1506576539842,471
1506576539850,471
1506576539858,472
1506576539862,474
1506576539870,474
1506576539879,477
1506576539887,478
1506576539895,480
1506576539903,483
1506576539911,482
1506576539919,485
1506576539928,486
1506576539936,488
1506576539944,489
1506576539952,488
1506576539960,489
1506576539969,487
1506576539977,487
1506576539985,488
1506576539993,486
1506576540001,489
1506576540010,493
1506576540017,501
1506576540022,513
1506576540030,528
1506576540038,547
1506576540046,567
1506576540055,589
1506576540063,608
1506576540071,624
1506576540079,640
1506576540087,649
1506576540096,652
1506576540104,652
1506576540112,644
1506576540120,636
1506576540128,621
1506576540136,605
1506576540145,588
1506576540153,568
1506576540161,551
1506576540169,533
1506576540177,517
1506576540181,503
1506576540190,490
1506576540198,482
1506576540207,474
1506576540215,468
1506576540223,465
1506576540231,462
1506576540239,463
1506576540247,462
1506576540256,464
1506576540264,468
1506576540272,470
1506576540280,477
1506576540288,482
1506576540297,488
1506576540305,496
1506576540313,499
1506576540321,505
1506576540330,508
1506576540337,513
1506576540342,516
1506576540350,515
1506576540358,516
1506576540366,515
1506576540374,512
1506576540382,510
1506576540391,505
1506576540399,504
1506576540407,500
1506576540415,495
1506576540423,493
1506576540432,488
1506576540440,485
1506576540448,480
1506576540456,479
