time,value
1506578156582,486
1506578156590,477
1506578156599,473
1506578156607,471
1506578156616,462
1506578156624,462
1506578156632,456
1506578156640,454
1506578156648,453
1506578156656,448
1506578156664,450
1506578156672,445
1506578156677,446
1506578156685,449
1506578156693,445
1506578156701,450
1506578156710,447
1506578156718,449
1506578156726,454
1506578156734,452
1506578156742,459
1506578156750,458
1506578156759,462
1506578156767,466
1506578156775,464
1506578156783,472
1506578156791,469
1506578156800,471
1506578156808,474
1506578156816,470
1506578156824,473
1506578156832,470
1506578156837,470
1506578156845,471
1506578156853,466
1506578156861,469
1506578156869,465
1506578156877,465
1506578156885,468
1506578156894,462
1506578156902,465
1506578156910,461
1506578156918,461
1506578156926,462
1506578156935,457
1506578156943,461
1506578156951,457
1506578156959,457
1506578156967,459
1506578156976,454
1506578156984,459
1506578156992,456
1506578156997,456
1506578157005,459
1506578157013,454
1506578157021,459
1506578157029,457
1506578157038,458
1506578157046,462
1506578157054,463
1506578157062,476
1506578157070,487
1506578157078,508
1506578157087,537
1506578157095,565
1506578157103,605
1506578157111,640
1506578157119,676
1506578157128,712
1506578157136,736
1506578157144,761
1506578157152,772
1506578157156,778
1506578157164,777
1506578157172,763
1506578157181,752
1506578157189,728
1506578157197,704
1506578157205,681
1506578157213,650
1506578157222,628
1506578157230,602
1506578157238,581
1506578157246,565
1506578157254,545
1506578157262,536
1506578157271,521
1506578157279,510
1506578157287,502
1506578157295,488
1506578157304,483
1506578157312,472
1506578157316,465
1506578157324,463
1506578157332,457
1506578157340,461
1506578157348,460
1506578157357,463
1506578157365,470
1506578157373,470
1506578157381,479
1506578157389,481
1506578157398,486
1506578157406,491
1506578157414,489
1506578157422,493
1506578157430,490
1506578157439,488
1506578157447,488
1506578157455,481
1506578157463,480
1506578157471,474
1506578157475,469
1506578157484,467
1506578157492,459
1506578157500,459
1506578157508,452
1506578157516,448
1506578157524,447
1506578157533,440
1506578157541,444
1506578157549,440
1506578157557,438
1506578157565,441
1506578157574,438
1506578157582,443
1506578157590,442
1506578157598,444
1506578157606,449
1506578157614,446
1506578157623,453
1506578157631,453
1506578157639,454
1506578157643,460
1506578157651,457
1506578157659,463
1506578157668,462
1506578157676,462
1506578157684,466
1506578157693,463
1506578157701,467
1506578157709,464
1506578157718,463
1506578157726,467
1506578157734,461
1506578157742,466
1506578157750,462
1506578157758,459
1506578157766,461
1506578157775,455
1506578157783,457
1506578157791,454
1506578157799,452
1506578157803,454
1506578157811,449
1506578157820,452
1506578157828,449
1506578157836,448
1506578157844,451
1506578157852,447
1506578157861,451
1506578157868,451
1506578157877,452
1506578157885,456
1506578157893,453
1506578157901,458
1506578157909,459
1506578157918,459
1506578157926,463
1506578157934,460
1506578157942,465
1506578157951,463
1506578157959,462
1506578157963,466
1506578157971,461
1506578157979,464
1506578157987,462
1506578157995,460
1506578158003,462
1506578158011,458
1506578158020,460
1506578158028,459
1506578158036,460
1506578158044,468
1506578158053,472
1506578158061,489
1506578158069,509
1506578158077,535
1506578158085,572
1506578158093,609
1506578158102,655
1506578158110,696
1506578158118,735
1506578158122,772
1506578158130,795
1506578158138,815
1506578158147,823
1506578158155,821
1506578158163,816
1506578158171,796
1506578158179,777
1506578158188,751
1506578158196,721
1506578158204,696
1506578158212,664
1506578158220,640
1506578158228,614
1506578158237,591
1506578158245,577
1506578158253,558
1506578158262,548
1506578158270,536
1506578158278,524
1506578158282,517
1506578158290,504
1506578158298,498
1506578158307,489
1506578158315,483
1506578158323,482
1506578158331,474
1506578158339,476
1506578158348,476
1506578158356,475
1506578158364,483
1506578158373,481
1506578158381,489
1506578158389,491
1506578158397,493
1506578158405,498
1506578158414,495
1506578158422,499
1506578158430,497
1506578158438,492
1506578158442,492
1506578158450,484
1506578158459,483
1506578158467,478
1506578158475,471
1506578158483,469
1506578158491,460
1506578158499,458
1506578158508,454
1506578158516,450
1506578158524,451
1506578158532,445
1506578158540,446
1506578158549,445
1506578158557,443
1506578158565,446
1506578158573,442
1506578158581,446
1506578158589,446
1506578158598,446
1506578158602,452
1506578158610,449
1506578158618,455
1506578158626,456
1506578158634,456
1506578158643,462
1506578158651,459
1506578158659,464
1506578158667,465
1506578158676,464
1506578158684,468
1506578158692,465
1506578158700,468
1506578158708,467
1506578158716,465
1506578158725,469
1506578158733,464
1506578158741,465
1506578158749,463
1506578158758,460
1506578158762,462
1506578158770,457
1506578158778,458
1506578158786,456
1506578158794,454
1506578158803,456
1506578158811,450
1506578158819,453
1506578158827,451
1506578158835,448
1506578158844,451
1506578158852,446
1506578158859,448
1506578158868,449
1506578158876,447
1506578158884,451
1506578158892,448
1506578158900,452
1506578158909,452
1506578158917,451
1506578158921,456
1506578158929,453
1506578158938,456
1506578158946,457
1506578158954,455
1506578158962,459
1506578158970,455
1506578158978,458
1506578158986,459
1506578158994,457
1506578159003,461
1506578159011,458
1506578159019,462
1506578159027,461
1506578159035,459
1506578159044,462
1506578159052,458
1506578159060,460
1506578159068,460
1506578159076,458
1506578159081,462
1506578159089,461
1506578159097,468
1506578159105,477
1506578159113,490
1506578159121,515
1506578159130,540
1506578159138,580
1506578159147,622
1506578159155,663
1506578159162,711
1506578159171,749
1506578159179,786
1506578159187,813
1506578159195,828
1506578159203,839
1506578159212,832
1506578159220,824
1506578159228,806
1506578159236,778
1506578159245,752
1506578159249,715
1506578159257,685
1506578159265,654
1506578159273,621
1506578159282,597
1506578159290,571
1506578159298,554
1506578159306,537
1506578159314,521
1506578159323,514
1506578159331,500
1506578159339,494
1506578159347,487
1506578159355,476
1506578159363,474
1506578159372,465
1506578159380,465
1506578159388,463
1506578159396,462
1506578159404,467
1506578159408,466
1506578159417,473
1506578159425,477
1506578159433,478
1506578159442,487
1506578159450,486
1506578159458,489
1506578159466,491
1506578159474,487
1506578159483,489
1506578159491,483
1506578159499,481
1506578159507,477
1506578159515,469
1506578159524,467
1506578159532,458
1506578159540,455
1506578159548,452
1506578159556,445
1506578159564,444
1506578159568,437
1506578159577,436
1506578159585,434
1506578159593,430
1506578159601,433
1506578159609,430
1506578159618,432
1506578159626,432
1506578159634,431
1506578159642,437
1506578159651,436
1506578159659,440
1506578159667,443
1506578159675,443
1506578159683,449
1506578159691,448
1506578159699,452
1506578159708,455
1506578159716,454
1506578159724,460
1506578159728,458
1506578159737,461
1506578159745,464
1506578159753,461
1506578159761,465
1506578159769,462
1506578159777,463
1506578159785,463
1506578159794,460
1506578159802,462
1506578159810,457
1506578159819,457
1506578159827,458
1506578159835,452
1506578159843,455
1506578159851,451
1506578159859,451
1506578159868,451
1506578159876,447
1506578159884,449
1506578159888,446
1506578159896,447
1506578159904,448
1506578159913,446
1506578159921,450
1506578159929,447
1506578159937,449
1506578159945,451
1506578159953,449
1506578159962,452
1506578159970,450
1506578159978,452
1506578159986,454
1506578159994,452
1506578160003,456
1506578160011,453
1506578160019,454
1506578160027,456
1506578160035,451
1506578160044,455
1506578160048,452
1506578160056,453
1506578160064,453
1506578160072,449
1506578160080,453
1506578160089,452
1506578160097,457
1506578160105,466
1506578160113,476
1506578160121,500
1506578160130,523
1506578160138,558
1506578160146,600
1506578160154,640
1506578160162,687
1506578160170,724
1506578160179,760
1506578160187,789
1506578160195,804
1506578160203,815
1506578160207,810
1506578160215,799
1506578160224,780
1506578160232,750
1506578160240,723
1506578160248,686
1506578160256,651
1506578160265,618
1506578160273,582
1506578160281,557
1506578160289,528
1506578160298,508
1506578160306,491
1506578160314,474
1506578160322,466
1506578160330,453
1506578160338,446
1506578160346,442
1506578160355,434
1506578160363,436
1506578160367,433
1506578160375,435
1506578160383,440
1506578160391,442
1506578160400,453
1506578160408,457
1506578160416,468
1506578160424,478
1506578160432,482
1506578160441,492
1506578160449,493
1506578160458,496
1506578160466,500
1506578160474,495
1506578160482,496
1506578160490,489
1506578160499,484
1506578160507,478
1506578160515,467
1506578160523,463
1506578160527,453
1506578160535,446
1506578160543,441
1506578160552,432
1506578160560,430
1506578160568,424
1506578160576,421
1506578160584,421
1506578160593,416
1506578160601,420
1506578160609,417
1506578160617,419
1506578160625,422
1506578160633,421
1506578160642,426
1506578160650,426
1506578160658,430
1506578160666,435
1506578160674,435
1506578160682,443
1506578160687,442
1506578160695,446
1506578160703,451
1506578160711,450
1506578160719,456
1506578160728,454
1506578160736,456
1506578160744,458
1506578160752,455
1506578160760,457
1506578160768,455
1506578160777,456
1506578160785,456
1506578160793,451
1506578160801,455
1506578160809,450
1506578160818,449
1506578160826,449
1506578160834,445
1506578160842,447
1506578160850,444
1506578160854,442
1506578160863,444
1506578160871,440
1506578160879,444
1506578160887,441
1506578160895,442
1506578160903,444
1506578160912,440
1506578160920,444
1506578160928,443
1506578160936,443
1506578160944,447
1506578160953,444
1506578160961,448
1506578160969,446
1506578160977,448
1506578160985,450
1506578160993,447
1506578161002,451
1506578161010,449
1506578161014,450
1506578161022,452
1506578161030,448
1506578161039,451
1506578161047,448
1506578161055,446
1506578161063,447
1506578161071,443
1506578161080,447
1506578161088,445
1506578161096,446
1506578161104,452
1506578161112,455
1506578161120,472
1506578161129,489
1506578161137,515
1506578161146,551
1506578161154,587
1506578161162,636
1506578161170,679
1506578161174,723
1506578161182,766
1506578161191,794
1506578161199,820
1506578161207,830
1506578161215,830
1506578161223,825
1506578161231,804
1506578161240,782
1506578161248,750
1506578161256,716
1506578161264,682
1506578161272,643
1506578161281,613
1506578161289,580
1506578161297,552
1506578161305,531
1506578161313,509
1506578161321,497
1506578161329,484
1506578161334,475
1506578161342,470
1506578161350,461
1506578161358,460
1506578161366,456
1506578161375,454
1506578161383,458
1506578161391,455
1506578161399,462
1506578161407,465
1506578161416,471
1506578161424,480
1506578161432,483
1506578161440,494
1506578161448,498
1506578161457,503
1506578161465,510
1506578161473,508
1506578161481,513
1506578161489,510
1506578161493,507
1506578161502,506
1506578161510,496
1506578161518,493
1506578161526,484
1506578161534,476
1506578161542,471
1506578161551,460
1506578161559,456
1506578161567,448
1506578161575,441
1506578161583,439
1506578161592,432
1506578161600,432
1506578161608,429
1506578161616,428
1506578161624,430
1506578161632,428
1506578161641,433
1506578161649,432
1506578161653,434
1506578161661,440
1506578161669,439
1506578161678,446
1506578161686,448
1506578161694,451
1506578161702,457
1506578161710,456
1506578161718,462
1506578161727,463
1506578161735,464
1506578161743,468
1506578161751,467
1506578161759,472
1506578161768,470
1506578161776,470
1506578161784,472
1506578161792,467
1506578161800,471
1506578161808,468
1506578161813,465
1506578161821,465
1506578161829,460
1506578161838,461
1506578161846,458
1506578161854,455
1506578161862,457
1506578161870,451
1506578161879,454
1506578161887,451
1506578161895,450
1506578161903,452
1506578161911,447
1506578161920,451
1506578161928,450
1506578161936,450
1506578161944,454
1506578161952,451
1506578161960,455
1506578161968,455
1506578161973,455
1506578161981,459
1506578161989,456
1506578161998,461
1506578162006,459
1506578162014,458
1506578162022,462
1506578162030,459
1506578162038,462
1506578162046,460
1506578162055,459
1506578162063,461
1506578162071,455
1506578162079,458
1506578162087,456
1506578162095,455
1506578162104,458
1506578162112,454
1506578162120,458
1506578162128,462
1506578162132,471
1506578162141,491
1506578162149,510
1506578162157,543
1506578162165,580
1506578162173,620
1506578162181,670
1506578162190,710
1506578162198,755
1506578162206,790
1506578162214,815
1506578162222,835
1506578162231,839
1506578162239,838
1506578162247,824
1506578162255,803
1506578162263,778
1506578162271,744
1506578162280,713
1506578162288,676
1506578162292,640
1506578162300,611
1506578162308,579
1506578162317,557
1506578162324,535
1506578162332,517
1506578162341,507
1506578162349,492
1506578162358,487
1506578162366,479
1506578162373,473
1506578162382,473
1506578162390,467
1506578162398,470
1506578162406,470
1506578162415,471
1506578162422,479
1506578162431,480
1506578162440,490
1506578162448,495
1506578162452,501
1506578162460,511
1506578162468,513
1506578162477,520
1506578162485,521
1506578162493,519
1506578162501,522
1506578162509,515
1506578162518,514
1506578162526,508
1506578162534,500
1506578162542,496
1506578162550,485
1506578162558,480
1506578162567,472
1506578162575,463
1506578162583,460
1506578162591,451
1506578162599,450
1506578162607,446
1506578162616,442
1506578162620,443
1506578162628,439
1506578162636,441
1506578162644,440
1506578162653,440
1506578162661,446
1506578162669,443
1506578162677,449
1506578162685,451
1506578162694,452
1506578162702,459
1506578162710,458
1506578162718,464
1506578162726,466
1506578162734,467
1506578162743,474
1506578162751,471
1506578162759,476
1506578162767,477
1506578162775,476
1506578162780,482
1506578162788,478
1506578162796,481
1506578162804,481
1506578162812,479
1506578162820,483
1506578162829,478
1506578162837,480
1506578162845,478
1506578162853,475
1506578162861,476
1506578162869,470
1506578162878,471
1506578162886,468
1506578162894,464
1506578162903,467
1506578162911,461
1506578162919,462
1506578162927,461
1506578162935,459
1506578162939,462
1506578162947,458
1506578162955,460
1506578162964,459
1506578162972,457
1506578162980,460
1506578162988,455
1506578162997,459
1506578163005,458
1506578163013,457
1506578163021,460
1506578163029,458
1506578163038,461
1506578163046,460
1506578163054,459
1506578163062,463
1506578163070,459
1506578163078,462
1506578163086,462
1506578163094,461
1506578163099,469
1506578163107,473
1506578163115,488
1506578163123,507
1506578163131,531
1506578163140,568
1506578163148,603
1506578163157,648
1506578163165,690
1506578163173,728
1506578163181,767
1506578163189,792
1506578163198,813
1506578163206,822
1506578163214,821
1506578163222,814
1506578163230,791
1506578163239,767
1506578163247,737
1506578163255,701
1506578163259,670
1506578163267,631
1506578163275,602
1506578163283,573
1506578163292,545
1506578163300,526
1506578163308,504
1506578163316,491
1506578163324,479
1506578163332,467
1506578163341,463
1506578163349,453
1506578163357,453
1506578163365,451
1506578163373,449
1506578163382,457
1506578163390,458
1506578163398,467
1506578163406,476
1506578163414,482
1506578163418,496
1506578163427,502
1506578163435,512
1506578163443,519
1506578163451,521
1506578163459,528
1506578163468,526
1506578163476,528
1506578163484,525
1506578163492,517
1506578163500,515
1506578163508,502
1506578163517,496
1506578163525,487
1506578163533,476
1506578163541,471
1506578163549,459
1506578163558,454
1506578163566,449
1506578163574,442
1506578163578,443
1506578163586,435
1506578163594,436
1506578163603,436
1506578163611,434
1506578163619,439
1506578163627,438
1506578163635,443
1506578163644,446
1506578163652,446
1506578163660,454
1506578163668,453
1506578163677,459
1506578163684,462
1506578163693,461
1506578163701,468
1506578163709,466
1506578163717,470
1506578163725,472
1506578163733,470
1506578163738,476
1506578163746,473
1506578163754,476
1506578163762,476
1506578163770,473
1506578163779,477
1506578163787,472
1506578163795,472
1506578163803,472
1506578163811,467
1506578163819,469
1506578163828,464
1506578163836,464
1506578163844,462
1506578163852,459
1506578163861,461
1506578163869,456
1506578163878,457
1506578163886,457
1506578163894,454
1506578163898,458
1506578163906,454
1506578163914,456
1506578163922,457
1506578163931,454
1506578163939,458
1506578163947,455
1506578163955,457
1506578163963,457
1506578163971,455
1506578163980,458
1506578163988,455
1506578163996,457
1506578164004,458
1506578164012,456
1506578164021,462
1506578164029,462
1506578164037,469
1506578164045,481
1506578164053,494
1506578164058,521
1506578164066,547
1506578164074,585
1506578164082,625
1506578164090,663
1506578164098,708
1506578164106,740
1506578164115,771
1506578164123,795
1506578164131,806
1506578164139,813
1506578164147,806
1506578164156,795
1506578164164,776
1506578164172,748
1506578164180,725
1506578164188,692
1506578164197,662
1506578164205,634
1506578164213,602
1506578164221,581
1506578164225,557
1506578164233,539
1506578164242,526
1506578164250,511
1506578164258,504
1506578164266,493
1506578164274,488
1506578164283,482
1506578164291,475
1506578164299,476
1506578164307,472
1506578164315,473
1506578164323,478
1506578164332,478
1506578164340,486
1506578164348,489
1506578164356,496
1506578164364,503
1506578164373,505
1506578164381,514
1506578164385,514
1506578164393,518
1506578164401,521
1506578164409,516
1506578164418,517
1506578164426,511
1506578164434,507
1506578164442,502
1506578164450,493
1506578164459,489
1506578164467,479
1506578164475,474
1506578164483,469
1506578164491,459
1506578164500,459
1506578164508,451
1506578164516,450
1506578164524,449
1506578164532,444
1506578164540,447
1506578164545,444
1506578164553,447
1506578164561,449
1506578164570,447
1506578164578,452
1506578164586,450
1506578164594,453
1506578164602,456
1506578164610,455
1506578164619,462
1506578164627,461
1506578164635,463
1506578164643,466
1506578164651,465
1506578164660,469
1506578164668,468
1506578164676,470
1506578164684,472
1506578164692,469
1506578164700,474
1506578164705,471
1506578164713,470
1506578164721,472
1506578164729,468
1506578164737,471
1506578164746,467
1506578164754,468
1506578164762,468
1506578164770,464
1506578164778,467
1506578164786,463
1506578164795,464
1506578164803,465
1506578164811,460
1506578164819,463
1506578164827,460
1506578164836,460
1506578164844,461
1506578164852,456
1506578164860,460
1506578164864,458
1506578164873,457
1506578164881,460
1506578164889,456
1506578164897,460
1506578164905,458
1506578164914,459
1506578164922,461
1506578164930,457
1506578164938,461
1506578164946,458
1506578164954,459
1506578164963,460
1506578164971,456
1506578164979,461
1506578164987,462
1506578164995,466
1506578165003,477
1506578165012,487
1506578165020,509
1506578165024,534
1506578165032,565
1506578165040,602
1506578165049,636
1506578165057,678
1506578165065,711
1506578165073,740
1506578165081,766
1506578165089,779
1506578165098,791
1506578165106,788
1506578165114,780
1506578165122,767
1506578165130,743
1506578165139,723
1506578165147,694
1506578165155,665
1506578165163,640
1506578165171,610
1506578165179,589
1506578165183,565
1506578165192,546
1506578165200,533
1506578165208,517
1506578165216,510
1506578165225,499
1506578165233,491
1506578165241,488
1506578165249,479
1506578165257,481
1506578165265,477
1506578165274,476
1506578165282,480
1506578165290,479
1506578165299,486
1506578165307,488
1506578165315,492
1506578165323,499
1506578165331,498
1506578165339,507
1506578165344,507
1506578165352,509
1506578165360,513
1506578165368,507
1506578165377,510
1506578165385,505
1506578165393,500
1506578165401,497
1506578165409,488
1506578165418,485
1506578165425,477
1506578165434,473
1506578165442,469
1506578165450,459
1506578165458,459
1506578165466,453
1506578165475,450
1506578165483,451
1506578165491,445
1506578165499,447
1506578165503,444
1506578165511,444
1506578165520,447
1506578165528,443
1506578165536,448
1506578165544,447
1506578165552,447
1506578165560,452
1506578165569,449
1506578165577,455
1506578165585,455
1506578165593,457
1506578165601,462
1506578165610,459
1506578165618,466
1506578165626,464
1506578165634,465
1506578165642,469
1506578165651,465
1506578165659,470
1506578165667,467
1506578165671,467
1506578165679,469
1506578165687,465
1506578165696,468
1506578165704,463
1506578165712,461
1506578165720,462
1506578165728,456
1506578165736,458
1506578165745,455
1506578165753,451
1506578165761,453
1506578165769,448
1506578165778,449
1506578165786,447
1506578165794,446
1506578165802,446
1506578165810,442
1506578165818,445
1506578165826,442
1506578165831,442
1506578165839,445
1506578165847,441
1506578165855,445
1506578165863,444
1506578165872,445
1506578165880,449
1506578165888,448
1506578165896,453
1506578165904,453
1506578165912,456
1506578165921,459
1506578165929,456
1506578165937,460
1506578165945,459
1506578165954,459
1506578165962,463
1506578165970,460
1506578165978,464
1506578165986,462
1506578165990,463
1506578165998,466
1506578166007,464
1506578166015,471
1506578166023,477
1506578166031,489
1506578166040,509
1506578166048,529
1506578166056,562
1506578166064,595
1506578166072,631
1506578166080,672
1506578166088,702
1506578166097,736
1506578166105,758
1506578166113,775
1506578166121,787
1506578166130,784
1506578166138,781
1506578166146,767
1506578166150,748
1506578166159,729
1506578166167,701
1506578166175,679
1506578166183,652
1506578166191,626
1506578166200,606
1506578166208,582
1506578166216,567
1506578166224,551
1506578166232,538
1506578166240,531
1506578166249,517
1506578166257,513
1506578166265,505
1506578166273,498
1506578166281,497
1506578166290,490
1506578166298,493
1506578166306,492
1506578166310,492
1506578166318,498
1506578166326,497
1506578166335,504
1506578166343,508
1506578166351,509
1506578166359,516
1506578166367,514
1506578166375,518
1506578166384,518
1506578166392,515
1506578166400,515
1506578166408,508
1506578166416,506
1506578166425,499
1506578166433,492
1506578166441,489
1506578166449,479
1506578166457,478
1506578166465,471
1506578166470,466
1506578166478,465
1506578166486,459
1506578166494,459
1506578166502,457
1506578166511,454
1506578166519,456
1506578166527,452
1506578166535,456
1506578166543,456
1506578166551,455
1506578166560,460
1506578166568,456
1506578166576,462
1506578166584,463
1506578166592,464
1506578166601,468
1506578166609,468
1506578166617,472
1506578166625,472
1506578166629,472
1506578166638,477
1506578166646,473
1506578166654,477
1506578166662,477
1506578166671,476
1506578166679,479
1506578166687,474
1506578166695,476
1506578166703,475
1506578166712,474
1506578166720,475
1506578166728,470
1506578166736,473
1506578166744,471
1506578166752,467
1506578166761,470
1506578166769,464
1506578166777,466
1506578166785,464
1506578166789,462
1506578166798,466
1506578166806,462
1506578166814,464
1506578166822,463
1506578166830,462
1506578166839,465
1506578166847,462
1506578166855,466
1506578166863,465
1506578166871,464
1506578166879,468
1506578166888,466
1506578166896,469
1506578166904,469
1506578166912,469
1506578166920,473
1506578166928,469
1506578166937,471
1506578166945,470
1506578166949,468
1506578166957,471
1506578166965,468
1506578166974,469
1506578166982,469
1506578166990,468
1506578166998,474
1506578167006,475
1506578167014,487
1506578167023,499
1506578167031,515
1506578167039,542
1506578167047,568
1506578167055,602
1506578167064,635
1506578167072,665
1506578167080,699
1506578167088,718
1506578167096,738
1506578167104,747
1506578167109,748
1506578167117,749
1506578167125,734
1506578167133,722
1506578167141,702
1506578167150,678
1506578167158,658
1506578167166,630
1506578167174,609
1506578167182,589
1506578167190,566
1506578167199,553
1506578167207,535
1506578167215,524
1506578167223,514
1506578167231,503
1506578167240,498
1506578167248,488
1506578167256,484
1506578167264,480
1506578167272,475
1506578167276,479
1506578167285,475
1506578167293,480
1506578167301,482
1506578167309,484
1506578167318,494
1506578167326,496
1506578167334,503
1506578167342,507
1506578167350,508
1506578167358,515
1506578167367,512
1506578167375,514
1506578167383,513
1506578167391,508
1506578167399,507
1506578167407,498
1506578167416,495
1506578167424,490
1506578167432,482
1506578167436,480
1506578167444,469
1506578167452,466
1506578167461,461
1506578167469,453
1506578167477,455
1506578167486,448
1506578167494,448
1506578167502,448
1506578167510,446
1506578167518,451
1506578167527,449
1506578167535,453
1506578167543,455
1506578167551,454
1506578167559,460
1506578167567,458
1506578167576,462
1506578167584,465
1506578167592,464
1506578167596,470
1506578167604,468
1506578167612,471
1506578167621,472
1506578167629,471
1506578167637,476
1506578167645,471
1506578167653,474
1506578167662,474
1506578167670,471
1506578167678,475
1506578167686,470
1506578167694,470
1506578167703,470
1506578167711,467
1506578167719,469
1506578167727,464
1506578167735,466
1506578167743,465
1506578167751,462
1506578167756,466
1506578167764,461
1506578167772,462
1506578167780,462
1506578167789,459
1506578167797,463
1506578167805,460
1506578167813,462
1506578167821,463
1506578167829,461
1506578167838,466
1506578167846,462
1506578167854,465
1506578167862,466
1506578167870,462
1506578167879,466
1506578167887,463
1506578167895,465
1506578167903,465
1506578167911,462
1506578167915,466
1506578167924,462
1506578167932,464
1506578167940,465
1506578167948,463
1506578167956,471
1506578167965,473
1506578167973,485
1506578167981,501
1506578167988,519
1506578167997,549
1506578168005,577
1506578168013,612
1506578168021,648
1506578168031,679
1506578168039,713
1506578168047,733
1506578168055,753
1506578168063,765
1506578168071,765
1506578168075,765
1506578168084,752
1506578168092,738
1506578168100,720
1506578168108,694
1506578168117,674
1506578168125,647
1506578168133,625
1506578168141,604
1506578168149,581
1506578168158,568
1506578168166,550
1506578168174,538
1506578168182,529
1506578168190,518
1506578168198,513
1506578168206,504
1506578168215,497
1506578168223,492
1506578168231,485
1506578168235,487
1506578168243,483
1506578168251,485
1506578168260,489
1506578168268,488
1506578168276,496
1506578168284,497
1506578168292,503
1506578168301,508
1506578168309,509
1506578168317,514
1506578168325,512
1506578168333,513
1506578168342,512
1506578168350,505
1506578168358,505
1506578168366,496
1506578168374,491
1506578168382,486
1506578168391,476
1506578168395,473
1506578168403,464
1506578168411,460
1506578168419,457
1506578168427,451
1506578168436,452
1506578168444,446
1506578168452,446
1506578168460,446
1506578168468,442
1506578168477,446
1506578168485,444
1506578168493,447
1506578168501,450
1506578168509,449
1506578168518,455
1506578168526,454
1506578168534,457
1506578168542,461
1506578168550,459
1506578168554,465
1506578168562,464
1506578168571,466
1506578168579,469
1506578168587,467
1506578168595,471
1506578168603,468
1506578168612,470
1506578168620,473
1506578168628,468
1506578168636,472
1506578168644,469
1506578168653,470
1506578168661,469
1506578168669,466
1506578168677,468
1506578168685,463
1506578168694,464
1506578168702,465
1506578168710,460
1506578168714,463
1506578168722,459
1506578168731,460
1506578168739,462
1506578168747,458
1506578168755,462
1506578168764,459
1506578168772,461
1506578168780,463
1506578168788,459
1506578168797,463
1506578168805,460
1506578168813,462
1506578168821,464
1506578168829,460
1506578168838,464
1506578168846,462
1506578168854,463
1506578168862,465
1506578168870,461
1506578168874,465
1506578168882,462
1506578168890,464
1506578168899,467
1506578168907,467
1506578168915,479
1506578168923,487
1506578168931,504
1506578168940,529
1506578168948,555
1506578168956,593
1506578168964,627
1506578168972,663
1506578168981,700
1506578168989,727
1506578168997,754
1506578169005,770
1506578169013,779
1506578169022,784
1506578169030,774
1506578169038,765
1506578169042,745
1506578169050,723
1506578169058,700
1506578169066,672
1506578169075,649
1506578169083,622
1506578169091,600
1506578169099,583
1506578169107,562
1506578169116,553
1506578169124,539
1506578169132,530
1506578169140,525
1506578169148,515
1506578169157,512
1506578169165,504
1506578169173,499
1506578169181,498
1506578169189,493
1506578169197,496
1506578169201,494
1506578169210,496
1506578169218,502
1506578169226,501
1506578169234,509
1506578169243,512
1506578169251,515
1506578169259,520
1506578169267,518
1506578169275,522
1506578169283,519
1506578169292,518
1506578169300,517
1506578169308,510
1506578169316,509
1506578169324,501
1506578169333,495
1506578169341,492
1506578169349,483
1506578169357,482
1506578169361,475
1506578169369,471
1506578169378,469
1506578169386,463
1506578169394,464
1506578169402,459
1506578169410,458
1506578169418,460
1506578169427,456
1506578169435,460
1506578169443,460
1506578169452,462
1506578169460,465
1506578169468,464
1506578169476,469
1506578169484,468
1506578169493,470
1506578169501,473
1506578169509,470
1506578169517,476
1506578169521,474
1506578169529,474
1506578169538,478
1506578169546,475
1506578169554,479
1506578169562,478
1506578169570,478
1506578169579,480
1506578169587,476
1506578169595,480
1506578169603,477
1506578169611,476
1506578169619,478
1506578169628,475
1506578169636,477
1506578169644,475
1506578169652,474
1506578169661,475
1506578169669,469
1506578169677,472
1506578169681,468
1506578169689,467
1506578169698,469
1506578169705,464
1506578169714,467
1506578169722,465
1506578169730,464
1506578169738,466
1506578169746,462
1506578169755,464
1506578169763,464
1506578169771,464
1506578169779,466
1506578169787,463
1506578169795,470
1506578169804,472
1506578169812,480
1506578169820,496
1506578169828,510
1506578169837,536
1506578169840,562
1506578169849,591
1506578169857,623
1506578169865,649
1506578169873,678
1506578169881,696
1506578169890,711
1506578169898,723
1506578169906,720
1506578169914,720
1506578169922,708
1506578169931,692
1506578169939,677
1506578169947,654
1506578169955,636
1506578169963,612
1506578169971,591
1506578169980,576
1506578169988,556
1506578169996,544
1506578170000,532
1506578170008,521
1506578170016,514
1506578170025,502
1506578170033,498
1506578170041,491
1506578170049,483
1506578170058,483
1506578170066,476
1506578170074,478
1506578170082,477
1506578170090,478
1506578170098,484
1506578170107,483
1506578170115,493
1506578170123,495
1506578170131,498
1506578170140,504
1506578170148,503
1506578170156,507
1506578170160,506
1506578170168,503
1506578170176,503
1506578170184,498
1506578170192,497
1506578170201,491
1506578170209,485
1506578170217,483
1506578170225,474
1506578170233,473
1506578170242,466
1506578170250,461
1506578170258,460
1506578170266,455
1506578170274,456
1506578170283,453
1506578170291,452
1506578170299,454
1506578170307,449
1506578170315,453
1506578170319,453
1506578170328,452
1506578170336,457
1506578170344,453
1506578170353,458
1506578170361,458
1506578170369,459
1506578170377,463
1506578170385,460
1506578170394,465
1506578170402,465
1506578170410,464
1506578170418,468
1506578170426,465
1506578170434,467
1506578170443,467
1506578170451,465
1506578170459,468
1506578170467,464
1506578170475,467
1506578170483,466
1506578170488,464
1506578170496,467
1506578170504,463
1506578170512,465
1506578170520,463
1506578170529,460
1506578170537,463
1506578170545,458
1506578170553,460
1506578170561,457
1506578170569,456
1506578170578,458
1506578170586,453
1506578170594,456
1506578170602,455
1506578170610,453
1506578170619,456
1506578170627,453
1506578170635,457
1506578170643,460
1506578170647,464
1506578170655,476
1506578170664,485
1506578170672,505
1506578170680,525
1506578170688,549
1506578170696,579
1506578170705,602
1506578170713,631
1506578170721,653
1506578170729,671
1506578170737,686
1506578170745,691
1506578170754,695
1506578170762,691
1506578170770,683
1506578170778,674
1506578170787,656
1506578170795,644
1506578170803,626
1506578170807,608
1506578170816,595
1506578170824,577
1506578170832,566
1506578170840,554
1506578170848,543
1506578170857,536
1506578170865,525
1506578170873,520
1506578170881,511
1506578170889,502
1506578170897,499
1506578170906,488
1506578170914,486
1506578170922,483
1506578170930,479
1506578170938,483
1506578170947,480
1506578170955,485
1506578170963,487
1506578170967,489
1506578170975,495
1506578170983,494
1506578170992,499
1506578171000,499
1506578171008,498
1506578171016,501
1506578171024,496
1506578171032,497
1506578171041,493
1506578171049,488
1506578171057,488
1506578171065,481
1506578171073,480
1506578171082,475
1506578171090,470
1506578171098,471
1506578171106,463
1506578171114,463
1506578171122,461
1506578171127,458
1506578171135,461
1506578171143,456
1506578171151,459
1506578171159,459
1506578171167,458
1506578171176,462
1506578171184,459
1506578171192,462
1506578171200,463
1506578171209,462
1506578171217,468
1506578171225,465
1506578171233,470
1506578171241,470
1506578171249,470
1506578171258,473
1506578171266,471
1506578171274,474
1506578171282,473
1506578171286,471
1506578171294,474
1506578171303,470
1506578171311,472
1506578171319,471
1506578171327,468
1506578171335,471
1506578171344,466
1506578171352,468
1506578171360,467
1506578171368,466
1506578171377,468
1506578171385,463
1506578171393,465
1506578171401,465
1506578171409,462
1506578171417,467
1506578171425,462
1506578171433,464
1506578171442,464
1506578171446,462
1506578171454,465
1506578171462,461
1506578171470,465
1506578171479,464
1506578171487,463
1506578171496,466
1506578171504,462
1506578171512,465
1506578171520,464
1506578171528,463
1506578171537,466
1506578171545,464
1506578171553,466
1506578171561,469
1506578171569,471
1506578171577,480
1506578171586,487
1506578171594,505
1506578171602,524
1506578171606,545
1506578171614,576
1506578171622,601
1506578171631,631
1506578171639,657
1506578171647,676
1506578171655,697
1506578171663,706
1506578171671,714
1506578171680,715
1506578171688,708
1506578171696,704
1506578171704,688
1506578171712,677
1506578171721,662
1506578171729,643
1506578171737,631
1506578171745,613
1506578171753,603
1506578171761,592
1506578171766,581
1506578171774,575
1506578171782,563
1506578171790,559
1506578171799,551
1506578171807,540
1506578171815,536
1506578171823,524
1506578171831,517
1506578171839,511
1506578171848,503
1506578171856,503
1506578171864,496
1506578171872,498
1506578171880,498
1506578171888,496
1506578171897,501
1506578171905,499
1506578171913,503
1506578171921,504
1506578171925,502
1506578171933,506
1506578171942,502
1506578171950,503
1506578171958,502
1506578171966,498
1506578171974,500
1506578171982,494
1506578171991,493
1506578171999,491
1506578172007,485
1506578172015,486
1506578172023,480
1506578172032,479
1506578172040,477
1506578172048,474
1506578172056,475
1506578172064,472
1506578172073,473
1506578172081,473
1506578172085,470
1506578172093,474
1506578172101,471
1506578172109,472
1506578172118,473
1506578172126,470
1506578172134,474
1506578172142,471
1506578172150,473
1506578172159,474
1506578172167,473
1506578172175,477
1506578172184,474
1506578172192,476
1506578172200,478
1506578172208,475
1506578172217,479
1506578172224,475
1506578172233,476
1506578172241,477
1506578172249,474
1506578172253,477
1506578172261,472
1506578172270,473
1506578172278,473
1506578172286,469
1506578172294,472
1506578172302,467
1506578172311,468
1506578172319,468
1506578172327,464
1506578172335,468
1506578172343,464
1506578172351,465
1506578172360,465
1506578172368,462
1506578172376,466
1506578172384,463
1506578172392,465
1506578172400,467
1506578172409,465
1506578172413,468
1506578172421,466
1506578172429,468
1506578172438,469
1506578172446,466
1506578172454,470
1506578172462,467
1506578172470,468
1506578172478,469
1506578172486,467
1506578172495,470
1506578172503,467
1506578172511,469
1506578172519,470
1506578172527,469
1506578172535,474
1506578172544,472
1506578172552,477
1506578172560,484
1506578172568,491
1506578172572,509
1506578172581,524
1506578172589,551
1506578172597,578
1506578172605,602
1506578172613,631
1506578172621,654
1506578172630,675
1506578172638,691
1506578172646,698
1506578172654,706
1506578172662,702
1506578172671,698
1506578172679,690
1506578172687,674
1506578172695,662
1506578172703,644
1506578172712,630
1506578172720,615
1506578172728,598
1506578172732,590
1506578172740,575
1506578172748,567
1506578172757,560
1506578172765,549
1506578172773,545
1506578172781,535
1506578172789,529
1506578172798,523
1506578172806,513
1506578172814,511
1506578172822,503
1506578172830,501
1506578172838,500
1506578172847,494
1506578172855,498
1506578172863,496
1506578172871,499
1506578172879,503
1506578172887,502
1506578172892,508
1506578172900,507
1506578172908,510
1506578172916,511
1506578172924,507
1506578172932,510
1506578172941,504
1506578172949,502
1506578172957,501
1506578172965,494
1506578172973,494
1506578172982,490
1506578172990,487
1506578172998,485
1506578173006,479
1506578173014,479
1506578173023,474
1506578173031,473
1506578173039,472
1506578173048,467
1506578173052,470
1506578173059,465
1506578173068,465
1506578173076,467
1506578173084,465
1506578173092,469
1506578173100,468
1506578173108,470
1506578173117,473
1506578173125,472
1506578173133,477
1506578173142,475
1506578173150,478
1506578173158,482
1506578173166,478
1506578173174,483
1506578173183,481
1506578173191,482
1506578173199,483
1506578173207,480
1506578173211,484
1506578173219,480
1506578173228,480
1506578173236,480
1506578173244,476
1506578173252,478
1506578173260,475
1506578173269,474
1506578173277,475
1506578173285,471
1506578173293,472
1506578173301,469
1506578173310,468
1506578173318,469
1506578173326,464
1506578173334,468
1506578173342,464
1506578173350,465
1506578173359,467
1506578173367,463
1506578173371,467
1506578173379,466
1506578173387,469
1506578173396,477
1506578173404,481
1506578173412,497
1506578173420,511
1506578173428,532
1506578173437,557
1506578173445,579
1506578173453,608
1506578173461,631
1506578173469,653
1506578173477,673
1506578173486,682
1506578173494,693
1506578173502,693
1506578173510,690
1506578173518,686
1506578173526,673
1506578173531,665
1506578173539,648
1506578173548,634
1506578173556,620
1506578173564,603
1506578173572,593
1506578173580,579
1506578173588,567
1506578173597,560
1506578173605,549
1506578173613,544
1506578173621,533
1506578173629,527
1506578173638,521
1506578173646,511
1506578173654,509
1506578173662,502
1506578173670,500
1506578173678,500
1506578173687,497
1506578173691,502
1506578173699,503
1506578173707,506
1506578173715,511
1506578173724,511
1506578173732,517
1506578173740,518
1506578173748,519
1506578173756,522
1506578173764,518
1506578173773,521
1506578173781,516
1506578173789,514
1506578173797,513
1506578173805,506
1506578173813,504
1506578173822,498
1506578173830,493
1506578173838,491
1506578173846,484
1506578173850,485
1506578173859,480
1506578173867,478
1506578173875,478
1506578173883,473
1506578173891,475
1506578173900,472
1506578173908,472
1506578173916,474
1506578173924,471
1506578173932,475
1506578173940,474
1506578173949,475
1506578173957,479
1506578173965,476
1506578173973,482
1506578173981,481
1506578173989,482
1506578173998,485
1506578174006,483
1506578174014,487
1506578174018,485
1506578174026,484
1506578174035,486
1506578174043,482
1506578174051,486
1506578174059,483
1506578174067,483
1506578174076,485
1506578174084,480
1506578174092,483
1506578174100,480
1506578174108,478
1506578174117,479
1506578174125,473
1506578174133,477
1506578174141,472
1506578174149,470
1506578174157,471
1506578174165,467
1506578174173,470
1506578174178,468
1506578174186,466
1506578174194,470
1506578174202,466
1506578174211,471
1506578174219,473
1506578174227,478
1506578174236,488
1506578174244,498
1506578174252,519
1506578174260,538
1506578174268,561
1506578174277,590
1506578174285,612
1506578174293,638
1506578174301,658
1506578174309,672
1506578174317,685
1506578174325,686
1506578174334,688
1506578174338,681
1506578174346,671
1506578174354,661
1506578174362,642
1506578174371,629
1506578174379,610
1506578174387,592
1506578174395,578
1506578174403,561
1506578174411,551
1506578174420,537
1506578174428,527
1506578174436,520
1506578174444,507
1506578174452,503
1506578174461,494
1506578174469,486
1506578174477,483
1506578174485,475
1506578174493,477
1506578174497,475
1506578174506,474
1506578174514,479
1506578174522,478
1506578174530,485
1506578174538,488
1506578174547,490
1506578174555,497
1506578174563,495
1506578174571,499
1506578174579,498
1506578174587,496
1506578174596,497
1506578174604,490
1506578174612,489
1506578174620,485
1506578174628,482
1506578174636,478
1506578174644,468
1506578174652,466
1506578174656,459
1506578174665,454
1506578174673,453
1506578174681,447
1506578174689,448
1506578174698,445
1506578174706,443
1506578174714,446
1506578174723,442
1506578174731,445
1506578174739,444
1506578174747,444
1506578174755,448
1506578174763,446
1506578174772,449
1506578174780,449
1506578174789,449
1506578174797,454
1506578174805,452
1506578174813,455
1506578174817,456
1506578174825,455
1506578174833,459
1506578174842,455
1506578174850,459
1506578174858,457
1506578174866,456
1506578174875,460
1506578174883,455
1506578174891,458
1506578174899,457
1506578174907,455
1506578174915,458
1506578174924,454
1506578174932,457
1506578174940,455
1506578174948,453
1506578174957,456
1506578174965,451
1506578174973,453
1506578174977,452
1506578174985,450
1506578174993,452
1506578175001,448
1506578175010,451
1506578175018,449
1506578175026,449
1506578175034,455
1506578175042,455
1506578175050,466
1506578175059,477
1506578175067,490
1506578175075,515
1506578175083,534
1506578175091,563
1506578175100,590
1506578175108,614
1506578175116,640
1506578175124,655
1506578175132,672
1506578175136,679
1506578175145,680
1506578175153,681
1506578175161,670
1506578175169,662
1506578175177,648
1506578175185,630
1506578175194,617
1506578175202,599
1506578175210,586
1506578175218,573
1506578175226,558
1506578175234,550
1506578175243,537
1506578175251,531
1506578175259,523
1506578175267,513
1506578175275,509
1506578175284,498
1506578175292,493
1506578175296,487
1506578175304,480
1506578175312,479
1506578175321,474
1506578175329,476
1506578175337,476
1506578175345,476
1506578175353,482
1506578175361,480
1506578175370,486
1506578175378,488
1506578175386,487
1506578175394,492
1506578175402,489
1506578175411,491
1506578175419,489
1506578175427,485
1506578175435,486
1506578175443,479
1506578175451,476
1506578175456,473
1506578175464,467
1506578175472,468
1506578175481,460
1506578175489,459
1506578175497,456
1506578175505,452
1506578175513,453
1506578175522,448
1506578175530,449
1506578175538,448
1506578175546,445
1506578175554,449
1506578175562,446
1506578175571,449
1506578175579,451
1506578175587,450
1506578175595,455
1506578175603,453
1506578175611,457
1506578175616,458
1506578175624,456
1506578175632,461
1506578175640,458
1506578175648,462
1506578175657,462
1506578175665,460
1506578175673,465
1506578175681,460
1506578175689,463
1506578175698,462
1506578175706,459
1506578175714,463
1506578175722,459
1506578175730,465
1506578175738,468
1506578175747,466
1506578175755,468
1506578175763,463
1506578175771,464
1506578175779,466
1506578175783,462
1506578175792,466
1506578175800,460
1506578175808,459
1506578175816,458
1506578175824,459
1506578175833,463
1506578175841,460
1506578175849,463
1506578175857,461
1506578175865,459
1506578175874,463
1506578175882,457
1506578175889,456
1506578175898,458
1506578175906,456
1506578175914,459
1506578175922,453
1506578175930,454
1506578175938,453
1506578175943,451
1506578175951,455
1506578175959,451
1506578175967,455
1506578175976,458
1506578175984,458
1506578175992,467
1506578176000,474
1506578176009,490
1506578176017,510
1506578176025,533
1506578176033,566
1506578176041,593
1506578176049,625
1506578176058,656
1506578176066,678
1506578176074,702
1506578176082,711
1506578176091,718
1506578176099,719
1506578176103,713
1506578176111,707
1506578176120,690
1506578176128,676
1506578176136,658
1506578176144,637
1506578176152,621
1506578176161,601
1506578176169,586
1506578176177,573
1506578176185,559
1506578176193,552
1506578176201,540
1506578176210,534
1506578176218,527
1506578176226,517
1506578176234,515
1506578176242,504
1506578176250,501
1506578176259,496
1506578176263,490
1506578176271,490
1506578176279,486
1506578176287,488
1506578176296,489
1506578176304,488
1506578176312,494
1506578176320,492
1506578176328,496
1506578176337,498
1506578176345,496
1506578176353,500
1506578176361,497
1506578176369,497
1506578176378,496
1506578176386,491
1506578176394,493
1506578176402,484
1506578176410,482
1506578176418,479
1506578176422,472
1506578176431,471
1506578176439,464
1506578176447,462
1506578176455,460
1506578176463,455
1506578176472,457
1506578176480,452
1506578176488,453
1506578176496,453
1506578176504,449
1506578176512,452
1506578176521,448
1506578176529,450
1506578176537,452
1506578176545,451
1506578176553,456
1506578176562,454
1506578176570,457
1506578176578,458
1506578176582,456
1506578176590,460
1506578176599,457
1506578176607,460
1506578176615,462
1506578176623,458
1506578176631,463
1506578176639,461
1506578176648,461
1506578176656,462
1506578176664,458
1506578176672,462
1506578176680,459
1506578176688,460
1506578176697,461
1506578176705,456
1506578176713,460
1506578176721,458
1506578176729,459
1506578176737,460
1506578176742,455
1506578176750,458
1506578176758,455
1506578176766,456
1506578176775,457
1506578176783,454
1506578176791,458
1506578176799,454
1506578176807,456
1506578176815,457
1506578176824,455
1506578176832,458
1506578176840,456
1506578176848,458
1506578176857,459
1506578176865,456
1506578176873,460
1506578176881,459
1506578176889,461
1506578176897,462
1506578176901,459
1506578176909,464
1506578176918,461
1506578176926,462
1506578176934,464
1506578176942,460
1506578176951,464
1506578176959,462
1506578176967,465
1506578176975,471
1506578176984,477
1506578176992,491
1506578177000,505
1506578177008,528
1506578177017,555
1506578177025,579
1506578177033,612
1506578177041,638
1506578177049,664
1506578177057,686
1506578177065,699
1506578177070,712
1506578177078,713
1506578177086,711
1506578177094,705
1506578177102,689
1506578177110,679
1506578177119,659
1506578177127,643
1506578177135,626
1506578177143,604
1506578177151,591
1506578177160,572
1506578177168,559
1506578177176,549
1506578177184,538
1506578177192,533
1506578177201,522
1506578177209,516
1506578177217,510
1506578177225,501
1506578177229,500
1506578177238,494
1506578177246,492
1506578177254,494
1506578177262,494
1506578177270,500
1506578177278,495
1506578177287,497
1506578177295,500
1506578177303,498
1506578177311,504
1506578177319,502
1506578177328,505
1506578177336,508
1506578177344,503
1506578177352,506
1506578177360,501
1506578177368,499
1506578177377,497
1506578177385,490
1506578177389,490
1506578177397,483
1506578177405,480
1506578177413,479
1506578177422,473
1506578177430,472
1506578177438,466
1506578177446,463
1506578177454,463
1506578177462,458
1506578177471,461
1506578177479,458
1506578177488,459
1506578177496,461
1506578177504,462
1506578177512,469
1506578177520,466
1506578177529,471
1506578177537,474
1506578177545,470
1506578177549,476
1506578177557,472
1506578177565,473
1506578177573,474
1506578177582,470
1506578177590,475
1506578177598,472
1506578177606,473
1506578177614,476
1506578177623,472
1506578177631,476
1506578177639,474
1506578177647,473
1506578177655,475
1506578177664,471
1506578177672,473
1506578177680,470
1506578177688,470
1506578177697,472
1506578177704,468
1506578177709,472
1506578177717,468
1506578177725,468
1506578177733,471
1506578177741,467
1506578177749,471
1506578177758,469
1506578177766,469
1506578177774,470
1506578177782,467
1506578177790,471
1506578177799,468
1506578177807,468
1506578177815,470
1506578177823,466
1506578177831,470
1506578177840,467
1506578177848,468
1506578177856,470
1506578177864,467
1506578177868,471
1506578177877,472
1506578177884,478
1506578177893,489
1506578177901,499
1506578177909,521
1506578177917,541
1506578177925,569
1506578177934,599
1506578177942,625
1506578177950,654
1506578177958,673
1506578177966,690
1506578177975,703
1506578177983,705
1506578177991,708
1506578177999,700
1506578178007,689
1506578178015,680
1506578178024,659
1506578178028,641
1506578178036,619
1506578178044,599
1506578178052,582
1506578178061,562
1506578178069,550
1506578178077,535
1506578178085,525
1506578178093,517
1506578178101,505
1506578178110,502
1506578178118,493
1506578178127,488
1506578178135,488
1506578178143,482
1506578178151,484
1506578178159,483
1506578178167,485
1506578178176,490
1506578178184,491
1506578178188,499
1506578178196,501
1506578178204,505
1506578178212,511
1506578178221,510
1506578178229,516
1506578178237,515
1506578178245,514
1506578178253,516
1506578178262,509
1506578178270,508
1506578178278,502
1506578178286,497
1506578178294,495
1506578178303,485
1506578178311,483
1506578178319,475
1506578178327,469
1506578178335,468
1506578178343,459
1506578178347,460
1506578178356,458
1506578178364,456
1506578178372,457
1506578178380,456
1506578178388,460
1506578178397,459
1506578178405,460
1506578178413,463
1506578178421,461
1506578178429,464
1506578178438,459
1506578178446,460
1506578178454,464
1506578178462,460
1506578178470,463
1506578178479,462
1506578178487,463
1506578178495,466
1506578178503,463
1506578178511,468
1506578178515,468
1506578178524,468
1506578178532,471
1506578178540,467
1506578178548,471
1506578178557,469
1506578178564,469
1506578178573,472
1506578178581,469
1506578178589,472
1506578178597,469
1506578178605,468
1506578178614,470
1506578178622,464
1506578178630,467
1506578178638,465
1506578178646,462
1506578178654,464
1506578178663,461
1506578178671,463
1506578178675,460
1506578178683,459
1506578178691,462
1506578178700,458
1506578178708,462
1506578178715,463
1506578178724,468
1506578178732,480
1506578178740,488
1506578178748,509
1506578178757,531
1506578178765,557
1506578178773,589
1506578178781,618
1506578178789,651
1506578178798,677
1506578178806,698
1506578178815,718
1506578178823,724
1506578178831,731
1506578178835,726
1506578178843,717
1506578178851,706
1506578178860,687
1506578178868,670
1506578178876,648
1506578178884,625
1506578178892,608
1506578178900,585
1506578178909,571
1506578178916,556
1506578178924,542
1506578178933,534
1506578178941,520
1506578178949,514
1506578178957,506
1506578178965,498
1506578178974,495
1506578178982,486
1506578178990,486
1506578178994,483
1506578179003,482
1506578179010,487
1506578179019,485
1506578179027,492
1506578179035,496
1506578179043,499
1506578179051,507
1506578179060,505
1506578179068,511
1506578179076,512
1506578179084,511
1506578179092,513
1506578179101,508
1506578179109,508
1506578179118,502
1506578179126,495
1506578179134,492
1506578179142,482
1506578179150,480
1506578179154,473
1506578179162,465
1506578179171,463
1506578179179,455
1506578179187,455
1506578179195,451
1506578179203,449
1506578179212,450
1506578179220,445
1506578179228,448
1506578179237,448
1506578179244,447
1506578179253,451
1506578179261,449
1506578179269,453
1506578179278,456
1506578179285,458
1506578179293,464
1506578179302,462
1506578179310,464
1506578179314,465
1506578179322,465
1506578179330,470
1506578179338,467
1506578179347,470
1506578179355,470
1506578179363,469
1506578179372,471
1506578179380,468
1506578179388,470
1506578179396,470
1506578179404,469
1506578179413,472
1506578179421,466
1506578179429,468
1506578179438,466
1506578179445,463
1506578179453,465
1506578179462,461
1506578179470,463
1506578179474,462
1506578179482,459
1506578179490,462
1506578179499,458
1506578179507,461
1506578179515,459
1506578179523,456
1506578179531,462
1506578179539,457
1506578179548,459
1506578179556,457
1506578179564,454
1506578179572,460
1506578179580,457
1506578179588,459
1506578179597,459
1506578179605,459
1506578179613,468
1506578179621,474
1506578179629,491
1506578179634,512
1506578179642,536
1506578179650,570
1506578179658,601
1506578179666,637
1506578179675,671
1506578179683,699
1506578179691,725
1506578179699,738
1506578179707,751
1506578179715,753
1506578179724,748
1506578179732,741
1506578179740,721
1506578179748,703
1506578179756,682
1506578179765,656
1506578179773,637
1506578179781,611
1506578179789,593
1506578179793,574
1506578179801,557
1506578179810,547
1506578179818,532
1506578179826,524
1506578179834,515
1506578179842,505
1506578179850,502
1506578179859,492
1506578179867,491
1506578179875,487
1506578179883,483
1506578179891,488
1506578179900,485
1506578179908,490
1506578179916,494
1506578179924,495
1506578179932,502
1506578179941,504
1506578179949,510
1506578179953,511
1506578179961,510
1506578179969,515
1506578179977,510
1506578179986,510
1506578179994,507
1506578180002,500
1506578180010,500
1506578180019,492
1506578180026,488
1506578180035,483
1506578180043,476
1506578180051,475
1506578180059,467
1506578180068,466
1506578180076,463
1506578180084,457
1506578180092,459
1506578180101,454
1506578180109,455
1506578180117,455
1506578180121,452
1506578180129,455
1506578180138,452
1506578180146,455
1506578180154,456
1506578180162,454
1506578180170,459
1506578180178,457
1506578180187,463
1506578180195,466
1506578180203,463
1506578180211,467
1506578180219,466
1506578180228,471
1506578180236,470
1506578180244,468
1506578180252,472
1506578180260,467
1506578180268,469
1506578180277,469
1506578180281,466
1506578180289,469
1506578180297,464
1506578180305,465
1506578180314,464
1506578180322,460
1506578180330,462
1506578180338,458
1506578180346,459
1506578180355,458
1506578180363,455
1506578180371,458
1506578180379,454
1506578180387,455
1506578180395,456
1506578180404,453
1506578180412,457
1506578180420,455
1506578180428,456
1506578180436,459
1506578180440,456
1506578180449,459
1506578180457,455
1506578180465,457
1506578180473,457
1506578180481,454
1506578180490,458
1506578180498,454
1506578180506,456
1506578180514,457
1506578180522,457
1506578180530,461
1506578180539,459
1506578180547,463
1506578180555,470
1506578180563,478
1506578180571,496
1506578180580,511
1506578180588,535
1506578180596,565
1506578180600,590
1506578180608,621
1506578180617,643
1506578180625,666
1506578180633,682
1506578180641,691
1506578180649,700
1506578180657,695
1506578180665,691
1506578180674,681
1506578180682,663
1506578180690,651
1506578180698,630
1506578180706,612
1506578180715,596
1506578180723,574
1506578180731,562
1506578180739,546
1506578180747,536
1506578180755,528
1506578180760,519
1506578180768,515
1506578180777,504
1506578180785,499
1506578180793,496
1506578180801,489
1506578180809,490
1506578180818,485
1506578180826,486
1506578180834,486
1506578180842,484
1506578180850,490
1506578180858,489
1506578180867,494
1506578180875,497
1506578180883,499
1506578180891,508
1506578180899,505
1506578180907,507
1506578180916,506
1506578180920,499
1506578180928,499
1506578180936,493
1506578180944,490
1506578180953,487
1506578180961,480
1506578180969,481
1506578180977,474
1506578180985,471
1506578180993,469
1506578181002,462
1506578181010,463
1506578181018,458
1506578181026,457
1506578181034,457
1506578181043,452
1506578181051,456
1506578181059,452
1506578181067,453
1506578181075,454
1506578181079,452
1506578181088,457
1506578181096,455
1506578181104,456
1506578181112,460
1506578181120,462
1506578181128,466
1506578181137,465
1506578181145,471
1506578181153,472
1506578181161,467
1506578181169,474
1506578181178,472
1506578181186,469
1506578181194,471
1506578181202,471
1506578181210,471
1506578181219,465
1506578181227,464
1506578181235,463
1506578181239,459
1506578181247,463
1506578181255,459
1506578181264,459
1506578181272,460
1506578181280,456
1506578181288,459
1506578181296,457
1506578181304,458
1506578181313,461
1506578181321,458
1506578181329,462
1506578181337,460
1506578181345,461
1506578181354,462
1506578181362,458
1506578181370,463
1506578181378,460
1506578181386,461
1506578181394,463
1506578181399,460
1506578181407,464
1506578181415,461
1506578181423,463
1506578181431,465
1506578181440,462
1506578181448,467
1506578181456,467
1506578181464,473
1506578181472,482
1506578181481,488
1506578181489,506
1506578181498,519
1506578181505,539
1506578181514,560
1506578181522,576
1506578181530,596
1506578181538,608
1506578181546,620
1506578181554,628
1506578181559,627
1506578181567,630
1506578181575,624
1506578181583,616
1506578181592,609
1506578181600,594
1506578181608,586
1506578181616,571
1506578181624,559
1506578181632,551
1506578181641,538
1506578181649,533
1506578181657,523
1506578181665,517
1506578181673,513
1506578181681,503
1506578181690,502
1506578181698,495
1506578181706,492
1506578181714,492
1506578181722,488
1506578181727,491
1506578181735,489
1506578181743,491
1506578181751,496
1506578181759,496
1506578181767,502
1506578181776,502
1506578181784,505
1506578181792,509
1506578181800,507
1506578181808,510
1506578181817,509
1506578181825,508
1506578181833,508
1506578181841,502
1506578181849,504
1506578181858,498
1506578181866,495
1506578181874,493
1506578181882,486
1506578181886,486
1506578181894,481
1506578181902,477
1506578181911,477
1506578181919,471
1506578181927,474
1506578181935,470
1506578181943,469
1506578181952,470
1506578181960,466
1506578181968,469
1506578181976,467
1506578181984,467
1506578181992,470
1506578182001,466
1506578182009,470
1506578182017,468
1506578182025,469
1506578182033,472
1506578182041,470
1506578182046,475
1506578182054,473
1506578182062,474
1506578182070,478
1506578182078,473
1506578182087,477
1506578182095,476
1506578182103,475
1506578182112,477
1506578182120,473
1506578182128,475
1506578182136,472
1506578182144,471
1506578182152,472
1506578182161,467
1506578182169,470
1506578182177,467
1506578182185,465
1506578182193,469
1506578182202,465
1506578182206,468
1506578182214,465
1506578182222,464
1506578182230,466
1506578182238,463
1506578182246,467
1506578182254,467
1506578182263,471
1506578182271,480
1506578182279,484
1506578182287,499
1506578182295,510
1506578182304,526
1506578182312,546
1506578182320,560
1506578182328,582
1506578182336,596
1506578182344,610
1506578182353,623
1506578182361,627
1506578182365,635
1506578182373,632
1506578182381,628
1506578182390,626
1506578182398,614
1506578182406,608
1506578182414,596
1506578182423,585
1506578182430,577
1506578182439,564
1506578182447,559
1506578182455,549
1506578182463,541
1506578182471,537
1506578182479,527
1506578182488,524
1506578182496,519
1506578182504,513
1506578182513,513
1506578182521,507
1506578182524,508
1506578182533,506
1506578182541,507
1506578182549,511
1506578182557,509
1506578182565,515
1506578182574,517
1506578182582,519
1506578182590,525
1506578182598,523
1506578182606,527
1506578182615,527
1506578182623,526
1506578182631,527
1506578182640,523
1506578182648,522
1506578182656,517
1506578182664,512
1506578182672,510
1506578182681,500
1506578182685,500
1506578182693,494
1506578182701,489
1506578182710,488
1506578182718,482
1506578182726,482
1506578182734,482
1506578182742,480
1506578182751,480
1506578182759,473
1506578182767,476
1506578182775,475
1506578182783,472
1506578182792,476
1506578182800,472
1506578182808,476
1506578182816,476
1506578182824,476
1506578182832,481
1506578182840,478
1506578182845,482
1506578182853,482
1506578182861,482
1506578182869,487
1506578182877,483
1506578182886,486
1506578182894,485
1506578182902,484
1506578182910,487
1506578182919,484
1506578182927,487
1506578182935,485
1506578182943,484
1506578182951,488
1506578182959,483
1506578182967,485
1506578182976,483
1506578182984,481
1506578182992,482
1506578183000,479
1506578183004,480
1506578183012,478
1506578183021,475
1506578183029,477
1506578183037,473
1506578183045,475
1506578183053,473
1506578183062,472
1506578183070,475
1506578183078,475
1506578183086,479
1506578183094,477
1506578183103,475
1506578183111,476
1506578183119,473
1506578183127,478
1506578183135,484
1506578183144,494
1506578183152,512
1506578183160,529
1506578183168,556
1506578183172,582
1506578183180,609
1506578183189,640
1506578183197,663
1506578183205,687
1506578183213,705
1506578183221,715
1506578183229,725
1506578183238,723
1506578183246,722
1506578183254,713
1506578183262,701
1506578183270,691
1506578183279,671
1506578183287,658
1506578183295,643
1506578183303,625
1506578183311,615
1506578183319,600
1506578183328,591
1506578183332,581
1506578183340,571
1506578183348,567
1506578183356,555
1506578183364,551
1506578183373,544
1506578183381,536
1506578183390,535
1506578183398,528
1506578183406,528
1506578183414,525
1506578183422,525
1506578183431,528
1506578183439,526
1506578183447,530
1506578183455,532
1506578183463,532
1506578183472,537
1506578183480,533
1506578183488,536
1506578183492,535
1506578183500,531
1506578183508,532
1506578183517,525
1506578183525,523
1506578183533,520
1506578183541,513
1506578183549,512
1506578183557,504
1506578183566,502
1506578183574,497
1506578183582,493
1506578183590,492
1506578183598,485
1506578183607,485
1506578183615,483
1506578183623,479
1506578183631,480
1506578183639,477
1506578183647,477
1506578183651,477
1506578183660,475
1506578183668,479
1506578183676,476
1506578183684,479
1506578183692,480
1506578183701,479
1506578183709,484
1506578183717,481
1506578183725,483
1506578183733,485
1506578183742,483
1506578183750,487
1506578183758,484
1506578183766,486
1506578183774,485
1506578183783,483
1506578183791,486
1506578183799,482
1506578183807,483
1506578183811,483
1506578183819,480
1506578183827,482
1506578183836,478
1506578183844,480
1506578183852,480
1506578183860,477
1506578183868,480
1506578183876,476
1506578183884,476
1506578183892,476
1506578183901,473
1506578183909,476
1506578183917,472
1506578183925,474
1506578183933,474
1506578183942,471
1506578183950,473
1506578183958,470
1506578183967,471
1506578183971,471
1506578183978,468
1506578183987,471
1506578183995,468
1506578184003,470
1506578184011,471
1506578184019,468
1506578184027,474
1506578184036,474
1506578184044,480
1506578184052,490
1506578184061,501
1506578184070,523
1506578184078,545
1506578184086,575
1506578184094,608
1506578184102,639
1506578184110,675
1506578184119,699
1506578184127,723
1506578184131,741
1506578184139,747
1506578184147,754
1506578184155,747
1506578184164,739
1506578184172,726
1506578184180,705
1506578184188,688
1506578184196,664
1506578184204,644
1506578184213,623
1506578184221,601
1506578184229,587
1506578184238,567
1506578184245,555
1506578184254,544
1506578184262,530
1506578184270,525
1506578184278,514
1506578184286,508
1506578184290,501
1506578184299,493
1506578184307,492
1506578184315,486
1506578184323,488
1506578184331,488
1506578184340,487
1506578184348,492
1506578184356,491
1506578184364,495
1506578184372,498
1506578184381,498
1506578184389,503
1506578184397,500
1506578184405,500
1506578184413,500
1506578184421,494
1506578184430,493
1506578184438,485
1506578184446,482
1506578184450,478
1506578184458,471
1506578184466,469
1506578184475,461
1506578184483,458
1506578184491,456
1506578184499,450
1506578184507,452
1506578184516,446
1506578184524,446
1506578184532,446
1506578184540,442
1506578184548,444
1506578184557,441
1506578184565,443
1506578184573,444
1506578184581,443
1506578184589,447
1506578184597,444
1506578184605,447
1506578184610,449
1506578184618,447
1506578184626,452
1506578184634,450
1506578184642,451
1506578184651,453
1506578184659,451
1506578184667,454
1506578184675,452
1506578184683,453
1506578184692,455
1506578184700,452
1506578184708,456
1506578184716,453
1506578184725,454
1506578184733,456
1506578184741,452
1506578184749,455
1506578184758,452
1506578184766,452
1506578184774,452
1506578184778,448
1506578184786,451
1506578184794,448
1506578184803,449
1506578184811,451
1506578184819,448
1506578184827,452
1506578184835,448
1506578184843,449
1506578184852,450
1506578184860,446
1506578184868,450
1506578184876,447
1506578184885,448
1506578184893,450
1506578184901,446
1506578184909,450
1506578184917,446
1506578184925,447
1506578184933,449
1506578184938,446
1506578184946,450
1506578184954,450
1506578184962,454
1506578184970,464
1506578184979,472
1506578184987,492
1506578184995,511
1506578185003,540
1506578185011,572
1506578185020,600
1506578185028,636
1506578185036,662
1506578185044,686
1506578185052,706
1506578185060,713
1506578185069,720
1506578185077,715
1506578185085,705
1506578185093,693
1506578185097,670
1506578185106,652
1506578185114,628
1506578185122,605
1506578185130,585
1506578185138,560
1506578185146,545
1506578185154,526
1506578185163,513
1506578185171,503
1506578185179,491
1506578185187,485
1506578185195,474
1506578185204,468
1506578185212,464
1506578185220,457
1506578185228,459
1506578185237,456
1506578185244,457
1506578185253,461
1506578185257,461
1506578185265,470
1506578185273,473
1506578185281,479
1506578185290,486
1506578185298,486
1506578185306,493
1506578185314,492
1506578185322,493
1506578185331,494
1506578185339,487
1506578185347,487
1506578185355,480
1506578185363,475
1506578185371,471
1506578185379,462
1506578185387,460
1506578185396,452
1506578185404,447
1506578185412,445
1506578185416,437
1506578185425,438
1506578185433,434
1506578185442,432
1506578185450,433
1506578185458,429
1506578185466,432
1506578185474,430
1506578185482,431
1506578185491,433
1506578185499,431
1506578185507,437
1506578185515,436
1506578185523,438
1506578185532,442
1506578185540,440
1506578185548,446
1506578185556,445
1506578185564,446
1506578185572,449
1506578185577,448
1506578185585,451
1506578185593,450
1506578185601,451
1506578185609,454
1506578185618,450
1506578185626,455
1506578185634,453
1506578185642,453
1506578185650,455
1506578185658,451
1506578185667,453
1506578185675,450
1506578185683,449
1506578185691,450
1506578185699,445
1506578185708,448
1506578185716,444
1506578185724,443
1506578185732,445
1506578185736,440
1506578185744,442
1506578185753,440
1506578185761,439
1506578185769,441
1506578185777,437
1506578185785,441
1506578185794,442
1506578185802,448
1506578185810,459
1506578185818,469
1506578185826,492
1506578185835,514
1506578185843,542
1506578185851,576
1506578185859,603
1506578185867,635
1506578185875,660
1506578185883,681
1506578185892,697
1506578185896,701
1506578185904,706
1506578185912,697
1506578185920,685
1506578185929,672
1506578185937,648
1506578185945,630
1506578185953,606
1506578185961,582
1506578185969,563
1506578185978,539
1506578185986,525
1506578185994,508
1506578186002,495
1506578186010,486
1506578186019,471
1506578186027,467
1506578186035,458
1506578186043,452
1506578186052,450
1506578186056,443
1506578186064,445
1506578186072,445
1506578186080,446
1506578186089,452
1506578186097,453
1506578186105,462
1506578186113,466
1506578186121,472
1506578186130,481
1506578186138,481
1506578186146,488
1506578186154,488
1506578186162,488
1506578186171,489
1506578186179,483
1506578186187,483
1506578186195,477
1506578186203,472
1506578186211,469
1506578186215,460
1506578186224,458
1506578186232,452
1506578186240,446
1506578186248,444
1506578186257,437
1506578186265,437
1506578186273,434
1506578186281,432
1506578186289,433
1506578186297,430
1506578186305,433
1506578186314,432
1506578186322,431
1506578186330,436
1506578186338,434
1506578186347,439
1506578186355,441
1506578186363,443
1506578186371,448
1506578186375,446
1506578186384,451
1506578186391,450
1506578186400,451
1506578186408,455
1506578186416,452
1506578186424,456
1506578186432,455
1506578186441,454
1506578186449,458
1506578186457,454
1506578186465,456
1506578186473,454
1506578186482,452
1506578186490,455
1506578186498,451
1506578186506,453
1506578186514,450
1506578186523,448
1506578186531,451
1506578186539,447
1506578186543,449
1506578186551,447
1506578186559,445
1506578186567,448
1506578186576,443
1506578186584,446
1506578186592,445
1506578186600,444
1506578186608,446
1506578186617,441
1506578186625,444
1506578186633,442
1506578186641,440
1506578186649,444
1506578186658,441
1506578186666,446
1506578186674,449
1506578186682,455
1506578186690,470
1506578186698,484
1506578186703,509
1506578186711,536
1506578186720,568
1506578186728,604
1506578186736,635
1506578186744,670
1506578186752,696
1506578186760,716
1506578186769,733
1506578186777,736
1506578186785,738
1506578186793,731
1506578186801,718
1506578186810,703
1506578186818,679
1506578186826,660
1506578186834,636
1506578186842,612
1506578186850,595
1506578186859,571
1506578186863,557
1506578186871,542
1506578186879,528
1506578186887,521
1506578186895,509
1506578186904,504
1506578186912,496
1506578186920,488
1506578186928,486
1506578186937,477
1506578186945,477
1506578186953,475
1506578186961,474
1506578186969,480
1506578186977,479
1506578186985,485
1506578186994,489
1506578187002,492
1506578187010,499
1506578187018,498
1506578187022,503
1506578187030,503
1506578187039,501
1506578187047,502
1506578187055,496
1506578187063,495
1506578187071,490
1506578187080,484
1506578187088,481
1506578187096,472
1506578187104,469
1506578187112,462
1506578187121,456
1506578187129,455
1506578187137,447
1506578187145,446
1506578187153,444
1506578187162,440
1506578187170,442
1506578187178,438
1506578187182,441
1506578187190,444
1506578187198,442
1506578187206,447
1506578187215,445
1506578187223,449
1506578187231,451
1506578187239,451
1506578187247,457
1506578187256,455
1506578187264,460
1506578187272,461
1506578187280,460
1506578187288,465
1506578187297,462
1506578187305,466
1506578187313,467
1506578187321,464
1506578187329,467
1506578187337,463
1506578187341,464
1506578187350,464
1506578187358,461
1506578187366,464
1506578187374,459
1506578187382,462
1506578187391,461
1506578187399,458
1506578187407,461
1506578187415,457
1506578187424,458
1506578187432,458
1506578187440,456
1506578187449,459
1506578187457,455
1506578187465,457
1506578187473,457
1506578187481,455
1506578187489,460
1506578187498,455
1506578187502,457
1506578187510,458
1506578187518,457
1506578187526,461
1506578187534,459
1506578187543,461
1506578187551,461
1506578187559,458
1506578187567,463
1506578187575,458
1506578187584,460
1506578187592,460
1506578187600,458
1506578187608,462
1506578187617,462
1506578187625,468
1506578187633,479
1506578187641,491
1506578187649,515
1506578187657,537
1506578187661,569
1506578187669,604
1506578187678,636
1506578187686,673
1506578187694,699
1506578187702,726
1506578187710,745
1506578187719,753
1506578187727,760
1506578187735,753
1506578187743,744
1506578187751,729
1506578187760,708
1506578187768,690
1506578187776,664
1506578187784,643
1506578187792,622
1506578187801,600
1506578187809,586
1506578187817,568
1506578187821,555
1506578187829,545
1506578187837,533
1506578187845,527
1506578187854,516
1506578187862,511
1506578187870,506
1506578187879,498
1506578187886,498
1506578187895,491
1506578187903,493
1506578187911,495
1506578187919,494
1506578187927,501
1506578187936,501
1506578187943,506
1506578187951,510
1506578187960,510
1506578187968,515
1506578187976,513
1506578187980,514
1506578187988,515
1506578187997,510
1506578188005,512
1506578188013,506
1506578188021,503
1506578188030,499
1506578188037,492
1506578188046,489
1506578188054,480
1506578188062,477
1506578188070,474
1506578188078,466
1506578188086,467
1506578188095,461
1506578188103,460
1506578188112,460
1506578188120,456
1506578188128,458
1506578188137,456
1506578188145,458
1506578188149,460
1506578188157,458
1506578188165,464
1506578188173,462
1506578188182,465
1506578188190,468
1506578188198,467
1506578188206,473
1506578188214,472
1506578188222,474
1506578188231,478
1506578188239,476
1506578188247,481
1506578188255,479
1506578188263,481
1506578188272,483
1506578188280,480
1506578188288,483
1506578188296,479
1506578188304,478
1506578188309,478
1506578188317,474
1506578188325,476
1506578188333,472
1506578188341,471
1506578188350,471
1506578188358,467
1506578188366,470
1506578188374,465
1506578188382,464
1506578188390,465
1506578188399,462
1506578188407,465
1506578188415,462
1506578188423,463
1506578188431,465
1506578188439,463
1506578188448,467
1506578188456,463
1506578188464,466
1506578188468,467
1506578188477,464
1506578188485,468
1506578188493,466
1506578188501,466
1506578188509,468
1506578188518,465
1506578188526,468
1506578188534,466
1506578188542,466
1506578188550,468
1506578188558,464
1506578188566,468
1506578188575,466
1506578188583,468
1506578188591,475
1506578188599,477
1506578188607,492
1506578188615,504
1506578188624,526
1506578188628,554
1506578188636,581
1506578188644,616
1506578188652,646
1506578188661,677
1506578188669,704
1506578188677,721
1506578188685,739
1506578188693,744
1506578188702,745
1506578188710,739
1506578188718,724
1506578188726,711
1506578188734,690
1506578188742,669
1506578188751,648
1506578188759,624
1506578188767,606
1506578188775,584
1506578188783,569
1506578188787,557
1506578188796,541
1506578188804,535
1506578188812,523
1506578188820,516
1506578188828,512
1506578188837,503
1506578188845,501
1506578188853,496
1506578188861,494
1506578188869,496
1506578188877,492
1506578188886,498
1506578188894,499
1506578188902,503
1506578188910,509
1506578188918,510
1506578188927,517
1506578188935,518
1506578188943,520
1506578188947,522
1506578188956,519
1506578188964,521
1506578188972,515
1506578188980,512
1506578188988,510
1506578188997,501
1506578189005,500
1506578189013,493
1506578189021,487
1506578189030,484
1506578189038,476
1506578189046,475
1506578189054,469
1506578189062,467
1506578189070,466
1506578189079,461
1506578189087,463
1506578189095,461
1506578189103,461
1506578189107,464
1506578189115,461
1506578189124,465
1506578189132,464
1506578189140,465
1506578189148,469
1506578189156,467
1506578189165,472
1506578189173,470
1506578189181,472
1506578189189,476
1506578189198,474
1506578189206,479
1506578189214,477
1506578189222,478
1506578189230,481
1506578189238,478
1506578189246,481
1506578189255,479
1506578189263,479
1506578189267,481
1506578189275,477
1506578189283,482
1506578189291,479
1506578189300,478
1506578189308,480
1506578189316,476
1506578189324,479
1506578189332,476
1506578189340,474
1506578189349,476
1506578189357,471
1506578189365,476
1506578189373,472
1506578189382,472
1506578189390,474
1506578189398,469
1506578189406,473
1506578189414,470
1506578189422,470
1506578189426,472
1506578189435,468
1506578189443,472
1506578189451,469
1506578189459,469
1506578189467,472
1506578189476,468
1506578189484,472
1506578189492,471
1506578189500,473
1506578189508,480
1506578189517,483
1506578189525,498
1506578189533,513
1506578189541,534
1506578189549,562
1506578189557,587
1506578189566,621
1506578189574,649
1506578189582,676
1506578189586,703
1506578189594,715
1506578189602,730
1506578189611,733
1506578189619,731
1506578189627,727
1506578189635,710
1506578189643,696
1506578189652,675
1506578189660,652
1506578189668,632
1506578189677,605
1506578189685,588
1506578189693,568
1506578189701,549
1506578189709,539
1506578189718,520
1506578189726,513
1506578189734,503
1506578189742,493
1506578189750,488
1506578189754,479
1506578189763,479
1506578189771,475
1506578189779,474
1506578189787,480
1506578189795,480
1506578189804,488
1506578189812,493
1506578189820,497
1506578189828,506
1506578189836,509
1506578189844,516
1506578189853,524
1506578189861,528
1506578189869,530
1506578189877,524
1506578189885,524
1506578189893,518
1506578189902,511
1506578189910,509
1506578189914,498
1506578189922,492
1506578189930,483
1506578189938,476
1506578189947,472
1506578189955,463
1506578189963,461
1506578189971,455
1506578189980,451
1506578189988,452
1506578189996,447
1506578190004,450
1506578190012,449
1506578190020,450
1506578190029,454
1506578190037,452
1506578190045,458
1506578190053,459
1506578190061,460
1506578190069,465
1506578190074,463
1506578190082,469
1506578190090,469
1506578190098,470
1506578190106,475
1506578190115,471
1506578190123,476
1506578190131,475
1506578190139,475
1506578190147,477
1506578190155,474
1506578190164,477
1506578190172,475
1506578190180,474
1506578190188,477
1506578190197,472
1506578190205,475
1506578190213,473
1506578190221,471
1506578190229,473
1506578190233,467
1506578190241,468
1506578190250,466
1506578190258,464
1506578190266,465
1506578190274,460
1506578190282,463
1506578190291,461
1506578190299,459
1506578190307,462
1506578190315,458
1506578190323,461
1506578190331,462
1506578190340,462
1506578190348,468
1506578190357,470
1506578190365,485
1506578190373,499
1506578190381,518
1506578190389,549
1506578190393,575
1506578190402,610
1506578190410,642
1506578190418,670
1506578190426,700
1506578190434,716
1506578190442,733
1506578190451,742
1506578190459,739
1506578190467,736
1506578190475,721
1506578190483,708
1506578190492,688
1506578190500,666
1506578190508,647
1506578190516,621
1506578190524,603
1506578190532,583
1506578190541,565
1506578190549,552
1506578190553,535
1506578190561,526
1506578190569,515
1506578190578,504
1506578190586,500
1506578190594,487
1506578190602,485
1506578190610,480
1506578190618,475
1506578190627,478
1506578190635,476
1506578190643,480
1506578190651,483
1506578190659,487
1506578190668,495
1506578190676,496
1506578190684,502
1506578190692,506
1506578190700,506
1506578190708,511
1506578190712,507
1506578190721,508
1506578190729,507
1506578190737,501
1506578190745,500
1506578190753,491
1506578190762,487
1506578190770,481
1506578190778,474
1506578190786,472
1506578190794,463
1506578190803,462
1506578190811,458
1506578190819,453
1506578190827,455
1506578190835,450
1506578190843,450
1506578190852,449
1506578190860,448
1506578190868,451
1506578190872,448
1506578190880,452
1506578190888,453
1506578190897,452
1506578190905,458
1506578190913,455
1506578190921,460
1506578190929,463
1506578190938,462
1506578190946,467
1506578190954,465
1506578190962,469
1506578190970,470
1506578190979,467
1506578190987,471
1506578190995,469
1506578191003,471
1506578191011,471
1506578191019,468
1506578191028,471
1506578191032,466
1506578191040,466
1506578191048,465
1506578191057,462
1506578191064,465
1506578191073,461
1506578191081,463
1506578191090,463
1506578191098,459
1506578191106,462
1506578191114,460
1506578191122,462
1506578191131,461
1506578191139,458
1506578191147,462
1506578191155,458
1506578191163,460
1506578191171,460
1506578191180,458
1506578191188,461
1506578191191,458
1506578191200,459
1506578191208,460
1506578191216,457
1506578191224,461
1506578191232,458
1506578191240,460
1506578191249,461
1506578191257,459
1506578191265,465
1506578191273,467
1506578191282,476
1506578191290,489
1506578191298,504
1506578191306,530
1506578191315,555
1506578191323,588
1506578191331,623
1506578191339,655
1506578191347,690
1506578191351,713
1506578191360,736
1506578191368,751
1506578191376,754
1506578191384,757
1506578191392,747
1506578191401,735
1506578191409,718
1506578191416,695
1506578191425,676
1506578191433,649
1506578191441,628
1506578191449,607
1506578191457,584
1506578191466,571
1506578191474,554
1506578191482,543
1506578191490,533
1506578191499,521
1506578191507,517
1506578191515,506
1506578191519,502
1506578191527,497
1506578191535,489
1506578191543,490
1506578191551,484
1506578191560,485
1506578191568,487
1506578191576,486
1506578191584,493
1506578191593,494
1506578191601,499
1506578191609,504
1506578191617,504
1506578191626,509
1506578191634,506
1506578191643,508
1506578191651,509
1506578191659,503
1506578191667,505
1506578191675,498
1506578191679,494
1506578191688,490
1506578191696,481
1506578191704,479
1506578191712,471
1506578191720,468
1506578191729,464
1506578191738,457
1506578191745,460
1506578191753,454
1506578191761,454
1506578191769,454
1506578191778,451
1506578191786,455
1506578191794,452
1506578191802,454
1506578191810,456
1506578191819,455
1506578191827,459
1506578191835,457
1506578191839,462
1506578191847,465
1506578191855,462
1506578191864,467
1506578191872,465
1506578191880,469
1506578191888,472
1506578191897,470
1506578191905,475
1506578191913,472
1506578191921,475
1506578191929,476
1506578191937,472
1506578191946,476
1506578191954,472
1506578191962,473
1506578191970,473
1506578191978,468
1506578191986,471
1506578191994,466
1506578191999,466
1506578192007,466
1506578192015,461
1506578192023,464
1506578192031,461
1506578192040,461
1506578192048,462
1506578192056,459
1506578192064,463
1506578192072,461
1506578192080,460
1506578192089,463
1506578192097,459
1506578192105,464
1506578192113,461
1506578192121,462
1506578192130,464
1506578192138,461
1506578192146,466
1506578192154,463
1506578192158,463
1506578192166,465
1506578192175,462
1506578192183,465
1506578192191,464
1506578192199,463
1506578192207,465
1506578192216,462
1506578192224,466
1506578192232,466
1506578192240,473
1506578192248,484
1506578192257,494
1506578192265,518
1506578192273,540
1506578192282,571
1506578192289,606
1506578192297,637
1506578192306,673
1506578192314,698
1506578192318,722
1506578192327,742
1506578192335,748
1506578192343,755
1506578192351,747
1506578192359,738
1506578192367,725
1506578192376,702
1506578192384,684
1506578192392,657
1506578192400,634
1506578192408,613
1506578192417,589
1506578192425,575
1506578192433,555
1506578192441,543
1506578192449,532
1506578192458,518
1506578192466,513
1506578192474,503
1506578192478,496
1506578192486,492
1506578192494,483
1506578192503,484
1506578192511,480
1506578192519,479
1506578192527,482
1506578192535,481
1506578192543,488
1506578192552,490
1506578192560,494
1506578192568,501
1506578192576,501
1506578192584,508
1506578192593,507
1506578192601,508
1506578192609,509
1506578192617,502
1506578192625,504
1506578192633,497
1506578192638,494
1506578192646,491
1506578192654,481
1506578192662,479
1506578192670,471
1506578192678,466
1506578192687,464
1506578192695,456
1506578192703,455
1506578192711,451
1506578192719,449
1506578192728,451
1506578192736,446
1506578192744,450
1506578192752,449
1506578192760,450
1506578192769,453
1506578192777,450
1506578192785,455
1506578192793,455
1506578192797,458
1506578192805,461
1506578192814,460
1506578192822,466
1506578192830,465
1506578192838,468
1506578192846,473
1506578192854,469
1506578192863,474
1506578192871,473
1506578192879,473
1506578192887,476
1506578192895,473
1506578192904,476
1506578192912,473
1506578192920,473
1506578192928,475
1506578192936,469
1506578192945,473
1506578192953,470
1506578192957,468
1506578192965,469
1506578192973,464
1506578192981,468
1506578192990,466
1506578192998,465
1506578193006,467
1506578193014,464
1506578193022,468
1506578193031,466
1506578193039,465
1506578193047,469
1506578193056,464
1506578193064,468
1506578193072,465
1506578193080,465
1506578193088,467
1506578193097,463
1506578193105,466
1506578193113,464
1506578193121,464
1506578193125,466
1506578193133,462
1506578193142,465
1506578193150,463
1506578193158,463
1506578193166,466
1506578193174,462
1506578193183,468
1506578193191,470
1506578193199,476
1506578193207,489
1506578193215,501
1506578193223,524
1506578193232,549
1506578193240,578
1506578193248,613
1506578193256,641
1506578193264,672
1506578193272,696
1506578193281,714
1506578193285,729
1506578193293,731
1506578193301,732
1506578193309,722
1506578193318,708
1506578193326,693
1506578193334,668
1506578193342,648
1506578193350,623
1506578193358,598
1506578193367,579
1506578193375,557
1506578193383,543
1506578193391,528
1506578193399,515
1506578193408,508
1506578193416,495
1506578193424,491
1506578193432,483
1506578193440,478
1506578193444,477
1506578193453,471
1506578193461,473
1506578193469,472
1506578193477,473
1506578193485,480
1506578193493,482
1506578193502,491
1506578193510,496
1506578193518,499
1506578193526,507
1506578193534,507
1506578193543,512
1506578193551,511
1506578193559,508
1506578193567,509
1506578193575,501
1506578193583,499
1506578193592,492
1506578193600,485
1506578193604,483
1506578193612,473
1506578193620,470
1506578193629,463
1506578193637,456
1506578193645,455
1506578193653,448
1506578193661,449
1506578193669,447
1506578193678,444
1506578193686,446
1506578193694,442
1506578193702,446
1506578193710,446
1506578193719,445
1506578193727,450
1506578193735,448
1506578193744,453
1506578193752,454
1506578193760,455
1506578193764,460
1506578193772,457
1506578193781,462
1506578193789,463
1506578193797,463
1506578193805,467
1506578193813,464
1506578193821,468
1506578193829,467
1506578193837,465
1506578193845,468
1506578193854,462
1506578193862,464
1506578193870,463
1506578193878,460
1506578193886,462
1506578193895,457
1506578193903,459
1506578193911,458
1506578193920,457
1506578193924,460
1506578193932,454
1506578193940,458
1506578193948,456
1506578193957,454
1506578193965,458
1506578193973,454
1506578193981,458
1506578193989,456
1506578193998,455
1506578194006,459
1506578194014,455
1506578194022,458
1506578194030,457
1506578194038,454
1506578194047,458
1506578194055,453
1506578194063,456
1506578194071,456
1506578194079,453
1506578194083,456
1506578194092,454
1506578194099,456
1506578194107,455
1506578194116,456
1506578194124,462
1506578194132,464
1506578194140,477
1506578194148,493
1506578194157,511
1506578194165,540
1506578194173,566
1506578194182,600
1506578194190,633
1506578194197,661
1506578194206,692
1506578194214,709
1506578194222,727
1506578194230,734
1506578194238,732
1506578194242,730
1506578194251,713
1506578194259,699
1506578194267,679
1506578194275,654
1506578194284,633
1506578194292,606
1506578194300,587
1506578194308,566
1506578194316,546
1506578194324,535
1506578194332,517
1506578194341,508
1506578194349,498
1506578194357,488
1506578194365,484
1506578194373,474
1506578194383,472
1506578194391,469
1506578194399,466
1506578194403,469
1506578194411,466
1506578194419,471
1506578194428,475
1506578194436,478
1506578194444,487
1506578194452,489
1506578194460,495
1506578194469,500
1506578194477,500
1506578194485,506
1506578194493,502
1506578194501,504
1506578194509,502
1506578194518,497
1506578194526,497
1506578194534,487
1506578194542,486
1506578194550,480
1506578194559,470
1506578194567,467
1506578194571,457
1506578194579,454
1506578194587,449
1506578194595,443
1506578194604,443
1506578194612,437
1506578194620,438
1506578194628,436
1506578194637,433
1506578194645,438
1506578194653,434
1506578194661,438
1506578194669,441
1506578194678,441
1506578194685,446
1506578194694,444
1506578194702,449
1506578194710,451
1506578194718,450
1506578194726,455
1506578194730,454
1506578194739,457
1506578194747,459
1506578194755,457
1506578194763,462
1506578194771,459
1506578194780,462
1506578194788,462
1506578194796,459
1506578194804,463
1506578194812,459
1506578194821,459
1506578194829,459
1506578194837,456
1506578194845,458
1506578194853,455
1506578194861,457
1506578194870,456
1506578194878,453
1506578194886,456
1506578194890,452
1506578194898,453
1506578194906,454
1506578194915,450
1506578194923,453
1506578194931,450
1506578194939,452
1506578194947,452
1506578194955,450
1506578194964,454
1506578194972,451
1506578194981,453
1506578194989,454
1506578194997,452
1506578195005,456
1506578195013,454
1506578195022,456
1506578195030,457
1506578195038,454
1506578195046,458
1506578195050,454
1506578195058,456
1506578195067,456
1506578195075,453
1506578195083,457
1506578195091,453
1506578195099,455
1506578195107,456
1506578195116,454
1506578195124,460
1506578195132,462
1506578195140,471
1506578195148,484
1506578195157,499
1506578195164,527
1506578195172,554
1506578195181,591
1506578195189,628
1506578195197,661
1506578195205,700
1506578195209,727
1506578195217,751
1506578195226,769
1506578195234,773
1506578195243,777
1506578195251,767
1506578195259,754
1506578195267,737
1506578195275,710
1506578195283,689
1506578195292,659
1506578195300,633
1506578195308,609
1506578195316,584
1506578195324,567
1506578195333,548
1506578195341,534
1506578195349,524
1506578195357,513
1506578195365,508
1506578195369,499
1506578195378,494
1506578195386,491
1506578195394,483
1506578195402,485
1506578195410,482
1506578195419,483
1506578195427,486
1506578195435,485
1506578195443,494
1506578195451,495
1506578195459,502
1506578195468,507
1506578195476,507
1506578195484,513
1506578195492,511
1506578195500,513
1506578195509,514
1506578195517,507
1506578195525,508
1506578195529,500
1506578195537,495
1506578195545,491
1506578195554,481
1506578195562,479
1506578195570,469
1506578195578,466
1506578195586,461
1506578195594,453
1506578195603,453
1506578195611,448
1506578195619,446
1506578195627,446
1506578195635,441
1506578195644,444
1506578195652,442
1506578195660,443
1506578195669,445
1506578195677,444
1506578195685,450
1506578195689,449
1506578195697,452
1506578195706,457
1506578195714,455
1506578195722,462
1506578195730,461
1506578195738,464
1506578195746,467
1506578195755,465
1506578195763,471
1506578195771,469
1506578195779,470
1506578195787,472
1506578195796,468
1506578195804,473
1506578195812,469
1506578195820,468
1506578195828,468
1506578195837,464
1506578195845,467
1506578195849,463
1506578195857,462
1506578195865,463
1506578195873,457
1506578195881,460
1506578195890,456
1506578195898,457
1506578195906,458
1506578195914,454
1506578195922,459
1506578195931,455
1506578195939,455
1506578195947,457
1506578195955,454
1506578195963,458
1506578195972,456
1506578195980,457
1506578195988,460
1506578195996,456
1506578196004,461
1506578196008,460
1506578196017,461
1506578196025,464
1506578196033,461
1506578196041,465
1506578196049,463
1506578196058,464
1506578196066,466
1506578196074,463
1506578196082,468
1506578196090,466
1506578196098,465
1506578196107,468
1506578196115,464
1506578196123,468
1506578196131,466
1506578196139,466
1506578196148,472
1506578196156,475
1506578196164,490
1506578196168,504
1506578196176,528
1506578196184,560
1506578196193,590
1506578196201,632
1506578196209,668
1506578196217,703
1506578196225,737
1506578196233,759
1506578196242,779
1506578196250,787
1506578196258,787
1506578196266,782
1506578196274,762
1506578196283,745
1506578196291,717
1506578196299,688
1506578196307,662
1506578196315,628
1506578196323,604
1506578196332,578
1506578196336,555
1506578196344,539
1506578196352,520
1506578196360,512
1506578196369,500
1506578196377,492
1506578196385,489
1506578196394,479
1506578196402,481
1506578196410,476
1506578196418,475
1506578196426,479
1506578196434,478
1506578196443,485
1506578196451,490
1506578196459,496
1506578196467,505
1506578196475,508
1506578196484,517
1506578196492,520
1506578196496,522
1506578196504,527
1506578196512,523
1506578196520,525
1506578196529,520
1506578196537,515
1506578196545,513
1506578196553,503
1506578196561,500
1506578196570,490
1506578196578,482
1506578196586,478
1506578196594,468
1506578196602,466
1506578196611,459
1506578196619,455
1506578196627,456
1506578196635,449
1506578196643,451
1506578196651,449
1506578196655,449
1506578196664,452
1506578196672,449
1506578196680,453
1506578196688,453
1506578196697,454
1506578196705,459
1506578196713,456
1506578196721,462
1506578196729,463
1506578196737,463
1506578196746,468
1506578196754,466
1506578196762,472
1506578196770,471
1506578196778,471
1506578196787,475
1506578196795,471
1506578196803,475
1506578196811,474
1506578196815,473
1506578196823,475
1506578196832,471
1506578196840,472
1506578196848,470
1506578196856,468
1506578196864,469
1506578196872,464
1506578196881,466
1506578196889,463
1506578196897,460
1506578196905,462
1506578196913,456
1506578196922,457
1506578196930,455
1506578196938,453
1506578196946,456
1506578196954,451
1506578196962,454
1506578196971,452
1506578196975,451
1506578196983,455
1506578196991,451
1506578197000,456
1506578197008,456
1506578197016,459
1506578197024,469
1506578197032,477
1506578197040,498
1506578197048,521
1506578197057,550
1506578197065,589
1506578197073,622
1506578197082,665
1506578197090,702
1506578197098,733
1506578197106,763
1506578197114,777
1506578197123,789
1506578197131,789
1506578197135,777
1506578197143,763
1506578197151,736
1506578197160,712
1506578197168,680
1506578197176,647
1506578197184,618
1506578197192,585
1506578197200,560
1506578197209,534
1506578197217,511
1506578197225,498
1506578197233,480
1506578197241,471
1506578197249,461
1506578197258,452
1506578197266,451
1506578197274,444
1506578197282,444
1506578197290,443
1506578197295,443
1506578197303,451
1506578197311,452
1506578197319,463
1506578197327,470
1506578197335,476
1506578197344,488
1506578197352,492
1506578197360,501
1506578197368,506
1506578197377,509
1506578197385,515
1506578197393,510
1506578197401,511
1506578197409,506
1506578197417,499
1506578197425,496
1506578197434,484
1506578197442,478
1506578197450,470
1506578197454,461
1506578197462,456
1506578197471,445
1506578197479,442
1506578197487,436
1506578197495,430
1506578197503,431
1506578197512,425
1506578197520,427
1506578197528,428
1506578197536,428
1506578197544,433
1506578197552,433
1506578197561,438
1506578197569,441
1506578197577,443
1506578197585,450
1506578197593,449
1506578197602,456
1506578197610,459
1506578197614,459
1506578197622,466
1506578197630,464
1506578197638,468
1506578197647,470
1506578197655,468
1506578197663,472
1506578197671,469
1506578197680,471
1506578197688,470
1506578197696,466
1506578197704,468
1506578197712,464
1506578197720,465
1506578197728,463
1506578197737,459
1506578197745,461
1506578197753,455
1506578197761,457
1506578197769,455
1506578197778,452
1506578197782,454
1506578197790,449
1506578197799,451
1506578197807,450
1506578197815,446
1506578197823,449
1506578197831,445
1506578197839,447
1506578197848,446
1506578197856,443
1506578197864,447
1506578197872,445
1506578197880,448
1506578197889,451
1506578197897,456
1506578197905,470
1506578197913,483
1506578197921,508
1506578197929,540
1506578197938,574
1506578197942,621
1506578197950,663
1506578197958,708
1506578197966,749
1506578197974,781
1506578197983,809
1506578197991,822
1506578197999,829
1506578198007,825
1506578198016,808
1506578198024,792
1506578198032,761
1506578198040,731
1506578198048,700
1506578198057,663
1506578198065,634
1506578198073,602
1506578198081,579
1506578198089,558
1506578198097,537
1506578198101,527
1506578198110,512
1506578198118,505
1506578198126,498
1506578198134,488
1506578198142,487
1506578198151,480
1506578198159,478
1506578198167,477
1506578198175,475
1506578198183,481
1506578198191,481
1506578198200,488
1506578198208,495
1506578198216,498
1506578198224,510
1506578198232,512
1506578198241,518
1506578198249,523
1506578198257,522
1506578198261,526
1506578198269,521
1506578198277,520
1506578198286,517
1506578198294,508
1506578198302,507
1506578198310,497
1506578198318,493
1506578198326,488
1506578198335,478
1506578198343,477
1506578198351,468
1506578198359,465
1506578198367,462
1506578198376,456
1506578198384,458
1506578198392,453
1506578198400,455
1506578198408,457
1506578198416,454
1506578198421,460
1506578198429,460
1506578198437,464
1506578198445,467
1506578198453,466
1506578198462,474
1506578198470,472
1506578198478,476
1506578198487,480
1506578198495,478
1506578198503,483
1506578198511,483
1506578198519,484
1506578198528,485
1506578198536,481
1506578198544,485
1506578198552,481
1506578198560,480
1506578198568,481
1506578198576,476
1506578198581,478
1506578198589,474
1506578198597,473
1506578198605,472
1506578198613,467
1506578198621,470
1506578198629,466
1506578198638,466
1506578198646,467
1506578198654,464
1506578198662,467
1506578198670,464
1506578198678,465
1506578198687,467
1506578198695,463
1506578198703,468
1506578198712,466
1506578198720,467
1506578198728,469
1506578198736,466
1506578198740,470
1506578198748,467
1506578198757,470
1506578198765,472
1506578198773,467
1506578198781,471
1506578198789,468
1506578198798,469
1506578198806,472
1506578198814,471
1506578198822,478
1506578198830,482
1506578198839,495
1506578198847,515
1506578198855,537
1506578198863,572
1506578198871,605
1506578198879,645
1506578198888,688
1506578198896,721
1506578198900,759
1506578198908,784
1506578198916,804
1506578198924,817
1506578198933,815
1506578198941,813
1506578198949,798
1506578198957,780
1506578198965,759
1506578198974,729
1506578198981,706
1506578198989,678
1506578198998,653
1506578199006,633
1506578199014,610
1506578199022,597
1506578199030,580
1506578199039,569
1506578199047,560
1506578199055,546
1506578199059,541
1506578199068,529
1506578199076,522
1506578199084,518
1506578199092,509
1506578199100,509
1506578199109,505
1506578199117,505
1506578199125,508
1506578199134,507
1506578199142,513
1506578199150,515
1506578199158,517
1506578199167,522
1506578199175,520
1506578199183,525
1506578199191,524
1506578199199,521
1506578199207,521
1506578199216,514
1506578199220,513
1506578199228,506
1506578199236,499
1506578199244,496
1506578199252,487
1506578199261,485
1506578199269,477
1506578199277,471
1506578199285,470
1506578199293,463
1506578199302,464
1506578199310,460
1506578199318,458
1506578199326,460
1506578199334,457
1506578199342,461
1506578199351,460
1506578199359,462
1506578199367,466
1506578199375,463
1506578199379,467
1506578199387,468
1506578199396,470
1506578199404,475
1506578199412,472
1506578199420,478
1506578199428,477
1506578199437,479
1506578199445,482
1506578199453,479
1506578199461,483
1506578199469,481
1506578199478,480
1506578199486,483
1506578199494,478
1506578199502,480
1506578199510,479
1506578199518,476
1506578199527,478
1506578199535,473
1506578199543,476
1506578199547,474
1506578199555,473
1506578199563,475
1506578199572,470
1506578199580,473
1506578199588,471
1506578199596,471
1506578199604,474
1506578199613,470
1506578199621,473
1506578199629,471
1506578199637,471
1506578199645,475
1506578199653,471
1506578199662,476
1506578199670,473
1506578199678,472
1506578199686,475
1506578199694,471
1506578199702,474
1506578199707,472
1506578199715,471
1506578199723,474
1506578199731,471
1506578199739,474
1506578199748,474
1506578199756,475
1506578199764,483
1506578199772,486
1506578199780,501
1506578199789,518
1506578199797,539
1506578199805,569
1506578199813,596
1506578199821,631
1506578199829,662
1506578199838,690
1506578199846,717
1506578199854,731
1506578199862,748
1506578199867,752
1506578199875,747
1506578199883,743
1506578199891,725
1506578199900,711
1506578199908,692
1506578199916,670
1506578199924,651
1506578199932,627
1506578199940,611
1506578199949,592
1506578199957,575
1506578199965,566
1506578199973,551
1506578199981,543
1506578199990,532
1506578199998,523
1506578200006,518
1506578200014,506
1506578200022,503
1506578200027,498
1506578200035,493
1506578200043,495
1506578200051,491
1506578200059,496
1506578200067,499
1506578200076,501
1506578200084,509
1506578200092,508
1506578200100,514
1506578200108,517
1506578200117,517
1506578200125,520
1506578200133,516
1506578200141,517
1506578200149,514
1506578200158,508
1506578200166,507
1506578200174,499
1506578200182,497
1506578200186,492
1506578200194,484
1506578200202,482
1506578200211,475
1506578200219,474
1506578200227,471
1506578200235,467
1506578200244,468
1506578200252,462
1506578200260,465
1506578200268,464
1506578200276,462
1506578200284,465
1506578200293,461
1506578200301,463
1506578200309,465
1506578200317,463
1506578200325,467
1506578200333,465
1506578200341,469
1506578200346,469
1506578200354,468
1506578200362,472
1506578200370,470
1506578200378,473
1506578200387,473
1506578200395,471
1506578200403,475
1506578200411,472
1506578200419,475
1506578200428,474
1506578200436,472
1506578200444,476
1506578200452,472
1506578200460,475
1506578200468,475
1506578200477,473
1506578200485,475
1506578200493,471
1506578200501,473
1506578200505,471
1506578200513,468
1506578200522,471
1506578200530,467
1506578200538,468
1506578200547,467
1506578200555,464
1506578200563,467
1506578200571,463
1506578200580,466
1506578200588,467
1506578200596,464
1506578200604,469
1506578200612,467
1506578200620,473
1506578200629,480
1506578200637,489
1506578200645,508
1506578200653,523
1506578200661,547
1506578200665,572
1506578200674,595
1506578200682,624
1506578200690,642
1506578200698,662
1506578200706,676
1506578200714,682
1506578200723,688
1506578200731,684
1506578200739,679
1506578200747,669
1506578200755,653
1506578200764,643
1506578200772,622
1506578200780,608
1506578200788,592
1506578200797,574
1506578200805,565
1506578200813,549
1506578200821,540
1506578200825,531
1506578200833,520
1506578200841,514
1506578200850,503
1506578200858,497
1506578200866,491
1506578200874,483
1506578200882,484
1506578200890,478
1506578200899,478
1506578200907,480
1506578200915,480
1506578200923,487
1506578200932,487
1506578200940,492
1506578200948,496
1506578200956,495
1506578200964,502
1506578200972,499
1506578200980,501
1506578200985,501
1506578200993,496
1506578201001,497
1506578201009,490
1506578201017,488
1506578201026,485
1506578201034,479
1506578201042,479
1506578201050,471
1506578201058,468
1506578201067,466
1506578201075,459
1506578201083,463
1506578201091,457
1506578201099,458
1506578201107,459
1506578201116,455
1506578201124,459
1506578201132,456
1506578201140,459
1506578201144,461
1506578201152,459
1506578201161,465
1506578201169,462
1506578201177,464
1506578201185,467
1506578201193,464
1506578201202,470
1506578201210,467
1506578201218,470
1506578201226,472
1506578201234,469
1506578201243,474
1506578201251,469
1506578201259,471
1506578201268,472
1506578201276,468
1506578201284,472
1506578201292,468
1506578201300,469
1506578201308,470
1506578201313,465
1506578201321,468
1506578201329,464
1506578201337,465
1506578201345,465
1506578201354,462
1506578201362,466
1506578201370,462
1506578201378,462
1506578201386,463
1506578201394,460
1506578201403,464
1506578201411,462
1506578201419,462
1506578201427,463
1506578201435,460
1506578201444,465
1506578201452,462
1506578201460,463
1506578201468,465
1506578201472,462
1506578201480,468
1506578201489,465
1506578201497,466
1506578201505,470
1506578201513,466
1506578201521,472
1506578201530,470
1506578201538,470
1506578201546,471
1506578201554,468
1506578201562,472
1506578201570,468
1506578201579,469
1506578201587,471
1506578201595,467
1506578201603,470
1506578201611,467
1506578201620,468
1506578201628,470
1506578201632,467
1506578201640,474
1506578201648,474
1506578201656,482
1506578201665,494
1506578201673,505
1506578201681,529
1506578201689,552
1506578201697,580
1506578201706,612
1506578201714,639
1506578201722,671
1506578201730,696
1506578201738,717
1506578201746,735
1506578201755,740
1506578201763,749
1506578201771,745
1506578201779,739
1506578201787,730
1506578201791,712
1506578201800,699
1506578201808,680
1506578201816,662
1506578201824,648
1506578201833,630
1506578201841,620
1506578201849,604
1506578201857,594
1506578201865,587
1506578201873,573
1506578201882,569
1506578201890,558
1506578201898,550
1506578201906,543
1506578201914,531
1506578201922,528
1506578201931,520
1506578201939,515
1506578201947,513
1506578201952,508
1506578201960,512
1506578201968,509
1506578201976,509
1506578201984,515
1506578201992,511
1506578202001,516
1506578202009,515
1506578202017,514
1506578202025,516
1506578202033,510
1506578202042,512
1506578202050,506
1506578202058,503
1506578202066,501
1506578202074,493
1506578202083,493
1506578202091,486
1506578202099,481
1506578202107,479
1506578202111,471
1506578202119,471
1506578202128,467
1506578202136,463
1506578202144,463
1506578202152,458
1506578202160,461
1506578202168,460
1506578202177,459
1506578202185,463
1506578202193,462
1506578202201,466
1506578202209,464
1506578202218,465
1506578202226,469
1506578202234,465
1506578202242,470
1506578202250,470
1506578202258,471
1506578202267,474
1506578202271,472
1506578202279,476
1506578202287,474
1506578202295,473
1506578202304,476
1506578202312,471
1506578202320,474
1506578202328,472
1506578202336,471
1506578202344,474
1506578202353,468
1506578202361,471
1506578202369,469
1506578202377,466
1506578202385,468
1506578202394,464
1506578202402,467
1506578202410,464
1506578202418,463
1506578202426,465
1506578202430,461
1506578202439,464
1506578202447,462
1506578202455,461
1506578202463,464
1506578202471,461
1506578202480,463
1506578202488,462
1506578202496,462
1506578202504,465
1506578202512,462
1506578202521,467
1506578202529,466
1506578202537,465
1506578202545,470
1506578202553,466
1506578202561,469
1506578202570,469
1506578202578,469
1506578202586,472
1506578202590,469
1506578202598,473
1506578202606,472
1506578202615,472
1506578202623,475
1506578202631,470
1506578202639,473
1506578202648,473
1506578202656,470
1506578202664,472
1506578202672,468
1506578202681,471
1506578202689,470
1506578202697,468
1506578202705,470
1506578202713,467
1506578202722,474
1506578202730,478
1506578202738,482
1506578202746,497
1506578202750,509
1506578202758,535
1506578202767,563
1506578202775,594
1506578202783,632
1506578202791,663
1506578202799,698
1506578202807,724
1506578202816,745
1506578202824,762
1506578202832,764
1506578202840,767
1506578202848,761
1506578202857,744
1506578202865,729
1506578202873,706
1506578202881,684
1506578202889,660
1506578202898,635
1506578202906,617
1506578202914,594
1506578202918,579
1506578202926,564
1506578202934,549
1506578202943,543
1506578202951,530
1506578202959,524
1506578202967,515
1506578202975,504
1506578202983,500
1506578202992,489
1506578203000,486
1506578203008,481
1506578203016,475
1506578203024,478
1506578203033,473
1506578203041,476
1506578203049,477
1506578203057,477
1506578203065,483
1506578203073,481
1506578203077,485
1506578203086,486
1506578203094,485
1506578203102,487
1506578203110,481
1506578203118,482
1506578203127,479
1506578203135,473
1506578203143,474
1506578203151,465
1506578203159,463
1506578203168,460
1506578203176,454
1506578203184,455
1506578203192,450
1506578203200,449
1506578203208,448
1506578203217,444
1506578203225,447
1506578203233,443
1506578203237,447
1506578203245,447
1506578203254,445
1506578203262,449
1506578203271,447
1506578203279,449
1506578203287,451
1506578203295,449
1506578203303,454
1506578203311,452
1506578203319,456
1506578203328,458
1506578203336,456
1506578203344,462
1506578203352,459
1506578203361,460
1506578203369,461
1506578203377,458
1506578203385,462
1506578203393,458
1506578203398,459
1506578203405,459
1506578203414,456
1506578203422,460
1506578203430,455
1506578203438,457
1506578203446,457
1506578203455,454
1506578203463,458
1506578203471,453
1506578203479,454
1506578203487,454
1506578203496,451
1506578203504,454
1506578203512,450
1506578203520,451
1506578203528,451
1506578203537,448
1506578203545,452
1506578203553,449
1506578203557,450
1506578203565,452
1506578203573,449
1506578203582,453
1506578203590,452
1506578203598,454
1506578203606,457
1506578203614,455
1506578203622,460
1506578203631,457
1506578203639,460
1506578203647,461
1506578203655,458
1506578203663,462
1506578203672,459
1506578203680,461
1506578203688,461
1506578203696,458
1506578203704,461
1506578203712,458
1506578203717,459
1506578203725,461
1506578203733,459
1506578203741,467
1506578203749,471
1506578203758,484
1506578203766,501
1506578203774,520
1506578203782,550
1506578203790,578
1506578203798,611
1506578203807,643
1506578203815,669
1506578203823,696
1506578203831,711
1506578203839,723
1506578203847,728
1506578203856,721
1506578203864,715
1506578203872,697
1506578203876,677
1506578203884,655
1506578203892,626
1506578203901,605
1506578203909,577
1506578203918,555
1506578203926,537
1506578203933,516
1506578203942,506
1506578203950,492
1506578203958,482
1506578203966,475
1506578203974,465
1506578203983,461
1506578203991,454
1506578203999,449
1506578204007,448
1506578204016,443
1506578204024,447
1506578204032,445
1506578204036,450
1506578204044,457
1506578204053,459
1506578204061,469
1506578204069,473
1506578204077,479
1506578204085,485
1506578204093,483
1506578204102,488
1506578204110,484
1506578204118,483
1506578204126,482
1506578204134,473
1506578204143,472
1506578204151,464
1506578204159,458
1506578204167,454
1506578204175,445
1506578204184,443
1506578204192,436
1506578204196,432
1506578204204,432
1506578204212,426
1506578204220,430
1506578204229,426
1506578204237,427
1506578204245,430
1506578204253,427
1506578204261,433
1506578204269,433
1506578204278,435
1506578204286,439
1506578204294,439
1506578204302,446
1506578204310,446
1506578204319,449
1506578204327,453
1506578204335,451
1506578204343,457
1506578204351,456
1506578204355,457
1506578204364,460
1506578204372,457
1506578204380,460
1506578204388,457
1506578204397,456
1506578204405,457
1506578204413,452
1506578204421,455
1506578204429,450
1506578204437,449
1506578204446,450
1506578204454,446
1506578204462,448
1506578204470,445
1506578204478,444
1506578204486,446
1506578204495,442
1506578204503,446
1506578204511,443
1506578204519,444
1506578204523,446
1506578204531,443
1506578204540,447
1506578204548,446
1506578204556,447
1506578204564,450
1506578204572,446
1506578204581,451
1506578204589,449
1506578204597,448
1506578204606,450
1506578204614,446
1506578204622,450
1506578204630,448
1506578204638,448
1506578204647,451
1506578204655,448
1506578204663,453
1506578204671,455
1506578204679,463
1506578204683,480
1506578204692,495
1506578204700,522
1506578204708,550
1506578204716,583
1506578204724,620
1506578204733,651
1506578204741,685
1506578204749,710
1506578204757,727
1506578204765,741
1506578204773,740
1506578204782,739
1506578204790,726
1506578204798,708
1506578204806,688
1506578204814,658
1506578204823,636
1506578204831,608
1506578204839,581
1506578204843,562
1506578204851,538
1506578204859,524
1506578204868,510
1506578204876,498
1506578204884,493
1506578204892,482
1506578204900,480
1506578204908,473
1506578204917,467
1506578204925,467
1506578204933,459
1506578204941,462
1506578204949,460
1506578204958,460
1506578204966,466
1506578204974,465
1506578204982,473
1506578204990,476
1506578204998,480
1506578205003,488
1506578205011,488
1506578205019,495
1506578205028,496
1506578205035,495
1506578205043,499
1506578205052,492
1506578205060,493
1506578205068,489
1506578205076,482
1506578205084,480
1506578205093,470
1506578205101,468
1506578205109,461
1506578205117,455
1506578205125,454
1506578205134,446
1506578205142,447
1506578205150,445
1506578205158,442
1506578205162,445
1506578205170,441
1506578205179,444
1506578205187,444
1506578205195,443
1506578205204,449
1506578205212,446
1506578205220,452
1506578205228,453
1506578205236,453
1506578205245,460
1506578205253,458
1506578205261,462
1506578205269,463
1506578205277,463
1506578205286,467
1506578205294,464
1506578205302,468
1506578205310,467
1506578205318,465
1506578205322,468
1506578205330,463
1506578205339,466
1506578205347,464
1506578205355,459
1506578205363,462
1506578205371,456
1506578205380,458
1506578205388,456
1506578205396,453
1506578205404,454
1506578205412,449
1506578205420,452
1506578205429,451
1506578205437,447
1506578205445,452
1506578205453,448
1506578205461,450
1506578205470,451
1506578205478,449
1506578205482,453
1506578205490,450
1506578205498,453
1506578205506,453
1506578205515,451
1506578205523,456
1506578205531,452
1506578205539,455
1506578205547,456
1506578205556,453
1506578205564,458
1506578205572,455
1506578205580,457
1506578205588,457
1506578205597,455
1506578205605,459
1506578205613,454
1506578205621,458
1506578205629,459
1506578205638,455
1506578205642,462
1506578205650,463
1506578205658,474
1506578205666,489
1506578205674,506
1506578205682,537
1506578205691,567
1506578205699,608
1506578205707,649
1506578205715,687
1506578205723,729
1506578205732,756
1506578205740,782
1506578205748,796
1506578205756,796
1506578205764,793
1506578205773,775
1506578205781,755
1506578205789,729
1506578205797,696
1506578205801,669
1506578205809,633
1506578205818,606
1506578205826,580
1506578205834,553
1506578205842,538
1506578205850,520
1506578205859,510
1506578205867,502
1506578205875,493
1506578205883,492
1506578205891,485
1506578205900,482
1506578205908,479
1506578205916,472
1506578205924,474
1506578205933,468
1506578205941,469
1506578205949,471
1506578205957,470
1506578205961,477
1506578205970,477
1506578205979,483
1506578205986,489
1506578205994,490
1506578206002,498
1506578206010,497
1506578206019,499
1506578206027,500
1506578206035,495
1506578206043,497
1506578206051,489
1506578206060,487
1506578206068,482
1506578206076,474
1506578206084,472
1506578206092,463
1506578206100,459
1506578206109,457
1506578206117,449
1506578206125,449
1506578206129,444
1506578206138,442
1506578206145,441
1506578206154,437
1506578206162,442
1506578206170,439
1506578206179,442
1506578206186,445
1506578206195,443
1506578206203,449
1506578206211,448
1506578206219,450
1506578206227,454
1506578206235,454
1506578206244,460
1506578206252,460
1506578206260,463
1506578206268,465
1506578206277,463
1506578206284,469
1506578206289,467
1506578206297,469
1506578206305,471
1506578206313,467
1506578206322,470
1506578206330,466
1506578206338,467
1506578206346,467
1506578206354,462
1506578206362,465
1506578206371,460
1506578206379,461
1506578206387,462
1506578206395,456
1506578206403,459
1506578206411,455
1506578206420,455
1506578206428,456
1506578206436,452
1506578206444,455
1506578206448,453
1506578206457,453
1506578206465,455
1506578206473,452
1506578206481,457
1506578206489,455
1506578206498,456
1506578206506,459
1506578206514,457
1506578206522,461
1506578206530,459
1506578206538,460
1506578206547,461
1506578206555,457
1506578206563,462
1506578206571,459
1506578206579,462
1506578206587,468
1506578206596,465
1506578206604,470
1506578206608,473
1506578206617,481
1506578206625,496
1506578206633,512
1506578206641,539
1506578206649,566
1506578206658,600
1506578206666,643
1506578206674,682
1506578206682,723
1506578206690,753
1506578206699,777
1506578206707,795
1506578206715,796
1506578206723,792
1506578206731,773
1506578206740,750
1506578206748,726
1506578206756,693
1506578206764,665
1506578206768,630
1506578206776,600
1506578206784,576
1506578206793,547
1506578206801,532
1506578206809,516
1506578206817,504
1506578206825,498
1506578206834,488
1506578206842,486
1506578206850,480
1506578206858,477
1506578206866,476
1506578206875,469
1506578206883,473
1506578206891,471
1506578206899,472
1506578206907,478
1506578206915,479
1506578206923,488
1506578206928,494
1506578206936,499
1506578206944,508
1506578206952,509
1506578206960,516
1506578206969,517
1506578206977,516
1506578206985,518
1506578206993,510
1506578207001,510
1506578207009,504
1506578207018,497
1506578207026,493
1506578207034,482
1506578207042,478
1506578207050,469
1506578207059,461
1506578207067,460
1506578207075,451
1506578207083,450
1506578207087,446
1506578207095,445
1506578207104,447
1506578207112,443
1506578207120,444
1506578207128,445
1506578207137,445
1506578207145,451
1506578207153,449
1506578207161,455
1506578207169,455
1506578207177,457
1506578207185,462
1506578207194,461
1506578207202,466
1506578207210,466
1506578207218,466
1506578207226,470
1506578207235,466
1506578207243,469
1506578207247,467
1506578207255,466
1506578207263,467
1506578207271,462
1506578207280,465
1506578207288,467
1506578207296,463
1506578207305,462
1506578207313,456
1506578207321,460
1506578207329,462
1506578207338,461
1506578207346,464
1506578207354,459
1506578207362,460
1506578207370,459
1506578207378,453
1506578207387,451
1506578207395,444
1506578207403,445
1506578207407,445
1506578207415,443
1506578207423,447
1506578207432,443
1506578207440,446
1506578207448,446
1506578207456,445
1506578207464,449
1506578207473,449
1506578207481,458
1506578207489,466
1506578207497,477
1506578207505,502
1506578207513,523
1506578207522,558
1506578207530,594
1506578207538,631
1506578207546,671
1506578207554,703
1506578207563,733
1506578207571,753
1506578207575,763
1506578207583,770
1506578207591,761
1506578207599,753
1506578207608,734
1506578207616,708
1506578207624,685
1506578207632,654
1506578207640,628
1506578207648,603
1506578207657,576
1506578207665,558
1506578207673,537
1506578207681,527
1506578207689,515
1506578207698,504
1506578207706,500
1506578207714,490
1506578207722,486
1506578207730,482
1506578207734,475
1506578207743,475
1506578207751,470
1506578207759,471
1506578207767,471
1506578207775,471
1506578207784,480
1506578207792,481
1506578207800,489
1506578207808,496
1506578207816,498
1506578207824,507
1506578207833,506
1506578207841,510
1506578207849,511
1506578207857,507
1506578207865,507
1506578207874,500
1506578207882,496
1506578207890,491
1506578207894,482
1506578207902,479
1506578207910,469
1506578207919,464
1506578207927,459
1506578207935,452
1506578207943,452
1506578207951,447
1506578207960,447
1506578207968,445
1506578207976,442
1506578207984,446
1506578207992,442
1506578208001,445
1506578208009,447
1506578208018,445
1506578208026,452
1506578208034,451
1506578208042,454
1506578208050,458
1506578208054,458
1506578208062,464
1506578208071,464
1506578208079,469
1506578208087,471
1506578208095,469
1506578208103,477
1506578208112,473
1506578208120,474
1506578208128,475
1506578208136,472
1506578208144,475
1506578208153,471
1506578208161,471
1506578208169,470
1506578208177,468
1506578208185,469
1506578208193,464
1506578208202,466
1506578208210,466
1506578208214,462
1506578208222,466
1506578208230,463
1506578208238,468
1506578208247,467
1506578208255,462
1506578208263,463
1506578208271,459
1506578208279,459
1506578208288,460
1506578208296,455
1506578208304,460
1506578208312,456
1506578208320,458
1506578208328,459
1506578208337,455
1506578208345,458
1506578208353,457
1506578208361,459
1506578208369,462
1506578208373,466
1506578208382,480
1506578208390,493
1506578208398,515
1506578208406,546
1506578208414,577
1506578208423,619
1506578208431,656
1506578208439,696
1506578208447,734
1506578208455,760
1506578208463,785
1506578208472,795
1506578208480,801
1506578208488,797
1506578208496,782
1506578208504,767
1506578208513,742
1506578208521,717
1506578208529,692
1506578208533,661
1506578208541,637
1506578208549,611
1506578208558,592
1506578208566,576
1506578208574,558
1506578208582,551
1506578208590,538
1506578208599,532
1506578208607,527
1506578208615,516
1506578208623,513
1506578208631,505
1506578208639,499
1506578208648,497
1506578208656,490
1506578208664,493
1506578208672,490
1506578208680,492
1506578208688,496
1506578208693,495
1506578208701,503
1506578208709,504
1506578208718,507
1506578208726,510
1506578208734,507
1506578208742,510
1506578208751,506
1506578208759,504
1506578208767,504
1506578208775,496
1506578208783,496
1506578208791,488
1506578208800,482
1506578208808,479
1506578208816,469
1506578208824,468
1506578208832,461
1506578208841,457
1506578208849,457
1506578208853,451
1506578208861,452
1506578208869,450
1506578208878,449
1506578208886,451
1506578208894,448
1506578208902,453
1506578208910,452
1506578208918,452
1506578208926,457
1506578208935,454
1506578208943,459
1506578208951,460
1506578208959,461
1506578208967,465
1506578208976,464
1506578208984,469
1506578208992,468
1506578209000,470
1506578209008,474
1506578209012,471
1506578209021,476
1506578209030,474
1506578209037,473
1506578209045,476
1506578209053,471
1506578209062,473
1506578209070,471
1506578209078,469
1506578209086,470
1506578209094,464
1506578209102,466
1506578209111,463
1506578209119,461
1506578209127,463
1506578209135,458
1506578209143,460
1506578209152,459
1506578209160,458
1506578209168,460
1506578209176,457
1506578209180,460
1506578209188,458
1506578209197,458
1506578209205,461
1506578209213,457
1506578209221,461
1506578209229,462
1506578209238,461
1506578209246,466
1506578209254,462
1506578209262,465
1506578209270,465
1506578209279,466
1506578209287,469
1506578209295,465
1506578209303,469
1506578209311,468
1506578209319,466
1506578209328,469
1506578209336,465
1506578209340,469
1506578209348,468
1506578209356,469
1506578209364,475
1506578209373,479
1506578209381,494
1506578209389,510
1506578209398,533
1506578209405,569
1506578209414,601
1506578209422,645
1506578209431,686
1506578209439,722
1506578209447,760
1506578209455,784
1506578209463,807
1506578209471,818
1506578209480,818
1506578209488,816
1506578209496,798
1506578209500,782
1506578209508,757
1506578209516,729
1506578209525,706
1506578209533,676
1506578209541,652
1506578209549,630
1506578209557,609
1506578209566,595
1506578209574,578
1506578209582,569
1506578209590,559
1506578209598,549
1506578209607,543
1506578209615,531
1506578209623,528
1506578209631,521
1506578209639,513
1506578209647,512
1506578209655,504
1506578209660,505
1506578209668,504
1506578209676,502
1506578209684,507
1506578209692,506
1506578209701,510
1506578209709,512
1506578209717,512
1506578209725,516
1506578209733,516
1506578209741,519
1506578209750,515
1506578209758,511
1506578209766,506
1506578209774,495
1506578209782,493
1506578209791,489
1506578209799,475
1506578209807,471
1506578209815,462
1506578209819,457
