time,value
1506578454025,617
1506578454033,634
1506578454041,655
1506578454050,669
1506578454058,678
1506578454066,687
1506578454074,683
1506578454082,681
1506578454091,671
1506578454095,656
1506578454103,644
1506578454111,620
1506578454119,602
1506578454127,581
1506578454136,558
1506578454144,542
1506578454152,519
1506578454160,506
1506578454168,492
1506578454177,478
1506578454185,473
1506578454193,463
1506578454201,462
1506578454210,459
1506578454218,458
1506578454226,463
1506578454234,461
1506578454242,465
1506578454250,467
1506578454254,468
1506578454263,478
1506578454271,476
1506578454279,481
1506578454287,483
1506578454295,484
1506578454303,490
1506578454312,490
1506578454320,496
1506578454328,498
1506578454336,499
1506578454344,505
1506578454353,504
1506578454361,509
1506578454369,511
1506578454377,509
1506578454385,512
1506578454394,508
1506578454402,508
1506578454410,507
1506578454414,502
1506578454422,502
1506578454430,495
1506578454439,493
1506578454447,489
1506578454455,482
1506578454463,483
1506578454471,475
1506578454480,474
1506578454488,472
1506578454496,466
1506578454504,468
1506578454512,464
1506578454520,465
1506578454529,466
1506578454537,465
1506578454545,471
1506578454554,468
1506578454562,473
1506578454570,476
1506578454578,474
1506578454582,481
1506578454590,479
1506578454599,483
1506578454607,485
1506578454615,484
1506578454623,489
1506578454631,487
1506578454640,490
1506578454648,491
1506578454656,489
1506578454664,494
1506578454672,490
1506578454681,492
1506578454689,492
1506578454697,489
1506578454705,493
1506578454713,488
1506578454722,489
1506578454730,489
1506578454738,486
1506578454742,489
1506578454750,484
1506578454759,485
1506578454766,485
1506578454775,480
1506578454783,483
1506578454791,477
1506578454799,477
1506578454807,477
1506578454816,474
1506578454824,476
1506578454832,472
1506578454840,474
1506578454848,475
1506578454857,475
1506578454865,485
1506578454873,490
1506578454881,504
1506578454889,521
1506578454897,536
1506578454902,558
1506578454910,578
1506578454918,600
1506578454926,621
1506578454934,636
1506578454942,654
1506578454951,661
1506578454959,668
1506578454967,671
1506578454975,664
1506578454983,659
1506578454992,644
1506578455000,630
1506578455008,613
1506578455016,591
1506578455024,573
1506578455032,550
1506578455041,530
1506578455049,513
1506578455057,493
1506578455061,484
1506578455069,468
1506578455078,460
1506578455086,456
1506578455094,449
1506578455102,449
1506578455110,446
1506578455118,446
1506578455127,447
1506578455135,446
1506578455143,452
1506578455152,452
1506578455160,457
1506578455168,463
1506578455176,463
1506578455184,472
1506578455193,476
1506578455201,481
1506578455209,488
1506578455217,490
1506578455221,498
1506578455229,500
1506578455238,505
1506578455246,509
1506578455254,509
1506578455262,513
1506578455270,511
1506578455278,512
1506578455287,514
1506578455295,508
1506578455303,508
1506578455311,503
1506578455319,499
1506578455328,496
1506578455336,489
1506578455344,488
1506578455352,480
1506578455360,476
1506578455368,473
1506578455377,465
1506578455381,465
1506578455389,461
1506578455397,458
1506578455405,458
1506578455413,454
1506578455422,456
1506578455430,454
1506578455438,455
1506578455446,458
1506578455454,457
1506578455463,463
1506578455471,463
1506578455479,465
1506578455487,470
1506578455495,469
1506578455504,475
1506578455512,476
1506578455520,478
1506578455528,483
1506578455536,482
1506578455540,486
1506578455549,486
1506578455557,488
1506578455565,490
1506578455573,487
1506578455581,490
1506578455589,488
1506578455598,488
1506578455606,489
1506578455614,485
1506578455622,486
1506578455630,485
1506578455639,485
1506578455647,486
1506578455655,482
1506578455663,486
1506578455671,483
1506578455680,482
1506578455688,483
1506578455696,479
1506578455700,481
1506578455708,478
1506578455716,477
1506578455725,478
1506578455733,474
1506578455741,477
1506578455749,476
1506578455757,480
1506578455765,488
1506578455774,493
1506578455782,508
1506578455790,523
1506578455799,542
1506578455807,565
1506578455815,585
1506578455823,609
1506578455831,629
1506578455840,649
1506578455848,668
1506578455856,676
1506578455860,686
1506578455868,686
1506578455877,682
1506578455885,676
1506578455893,661
1506578455901,649
1506578455909,628
1506578455917,607
1506578455926,588
1506578455934,564
1506578455942,547
1506578455950,526
1506578455958,509
1506578455967,497
1506578455975,481
1506578455983,474
1506578455991,466
1506578455999,461
1506578456008,462
1506578456016,457
1506578456020,461
1506578456028,461
1506578456036,462
1506578456045,467
1506578456053,466
1506578456061,473
1506578456069,474
1506578456077,476
1506578456085,483
1506578456093,482
1506578456102,489
1506578456110,492
1506578456118,495
1506578456126,500
1506578456134,499
1506578456143,505
1506578456151,506
1506578456159,508
1506578456167,512
1506578456175,509
1506578456183,512
1506578456188,510
1506578456196,506
1506578456204,507
1506578456212,500
1506578456220,500
1506578456229,495
1506578456237,490
1506578456245,488
1506578456253,481
1506578456261,480
1506578456269,475
1506578456278,471
1506578456286,471
1506578456294,464
1506578456302,465
1506578456310,463
1506578456319,461
1506578456327,464
1506578456335,461
1506578456343,464
1506578456347,464
1506578456356,465
1506578456364,470
1506578456372,468
1506578456380,474
1506578456388,475
1506578456397,476
1506578456405,482
1506578456413,481
1506578456421,486
1506578456429,487
1506578456438,488
1506578456446,492
1506578456454,489
1506578456462,492
1506578456470,492
1506578456479,491
1506578456487,494
1506578456495,490
1506578456503,492
1506578456507,491
1506578456515,489
1506578456523,491
1506578456532,488
1506578456540,489
1506578456548,488
1506578456556,486
1506578456564,489
1506578456573,485
1506578456581,487
1506578456589,485
1506578456597,482
1506578456605,486
1506578456613,482
1506578456622,483
1506578456630,483
1506578456638,480
1506578456646,481
1506578456654,476
1506578456662,478
1506578456667,477
1506578456675,474
1506578456683,479
1506578456691,477
1506578456699,485
1506578456708,491
1506578456716,501
1506578456724,519
1506578456732,534
1506578456740,556
1506578456749,577
1506578456758,598
1506578456765,623
1506578456774,640
1506578456782,660
1506578456790,673
1506578456798,680
1506578456806,688
1506578456814,685
1506578456822,684
1506578456827,674
1506578456835,660
1506578456843,647
1506578456851,626
1506578456859,609
1506578456868,589
1506578456876,566
1506578456884,551
1506578456892,530
1506578456900,517
1506578456909,504
1506578456917,491
1506578456925,486
1506578456933,479
1506578456941,477
1506578456950,475
1506578456958,472
1506578456966,475
1506578456974,473
1506578456982,478
1506578456986,479
1506578456995,479
1506578457003,484
1506578457011,483
1506578457019,486
1506578457027,487
1506578457035,487
1506578457043,492
1506578457051,490
1506578457060,493
1506578457068,495
1506578457076,495
1506578457084,501
1506578457092,498
1506578457101,502
1506578457109,503
1506578457117,501
1506578457125,504
1506578457133,502
1506578457141,502
1506578457145,500
1506578457154,496
1506578457162,497
1506578457170,491
1506578457178,490
1506578457186,488
1506578457195,482
1506578457203,482
1506578457211,476
1506578457219,474
1506578457227,474
1506578457236,469
1506578457244,471
1506578457252,467
1506578457260,469
1506578457268,469
1506578457277,468
1506578457285,474
1506578457293,472
1506578457301,475
1506578457306,478
1506578457314,477
1506578457322,482
1506578457330,482
1506578457338,484
1506578457346,487
1506578457355,486
1506578457363,490
1506578457371,488
1506578457379,491
1506578457387,493
1506578457396,490
1506578457404,494
1506578457412,492
1506578457420,493
1506578457428,495
1506578457437,493
1506578457445,497
1506578457454,493
1506578457462,494
1506578457466,495
1506578457474,491
1506578457482,494
1506578457490,492
1506578457498,492
1506578457507,493
1506578457515,490
1506578457523,493
1506578457531,490
1506578457539,491
1506578457548,491
1506578457556,487
1506578457564,490
1506578457572,487
1506578457580,487
1506578457588,487
1506578457597,484
1506578457605,486
1506578457613,482
1506578457621,482
1506578457625,483
1506578457633,480
1506578457642,485
1506578457650,485
1506578457658,492
1506578457666,502
1506578457674,510
1506578457683,528
1506578457691,543
1506578457699,564
1506578457707,587
1506578457715,606
1506578457724,630
1506578457732,647
1506578457740,665
1506578457748,680
1506578457756,685
1506578457765,692
1506578457773,689
1506578457781,685
1506578457789,677
1506578457793,661
1506578457801,649
1506578457809,629
1506578457818,610
1506578457826,593
1506578457834,571
1506578457842,557
1506578457850,539
1506578457859,524
1506578457867,513
1506578457875,500
1506578457883,495
1506578457891,488
1506578457900,486
1506578457908,487
1506578457916,483
1506578457924,487
1506578457932,485
1506578457940,488
1506578457949,491
1506578457953,489
1506578457961,493
1506578457969,493
1506578457978,494
1506578457985,496
1506578457994,497
1506578458002,503
1506578458010,500
1506578458018,502
1506578458026,505
1506578458035,503
1506578458043,508
1506578458051,507
1506578458059,508
1506578458067,510
1506578458076,507
1506578458084,508
1506578458092,505
1506578458100,504
1506578458108,504
1506578458112,499
1506578458121,500
1506578458129,495
1506578458137,492
1506578458145,491
1506578458153,485
1506578458162,485
1506578458170,480
1506578458178,478
1506578458186,478
1506578458195,474
1506578458203,476
1506578458211,473
1506578458219,474
1506578458227,476
1506578458236,472
1506578458244,476
1506578458252,476
1506578458260,478
1506578458268,480
1506578458272,479
1506578458281,483
1506578458289,483
1506578458297,484
1506578458305,488
1506578458313,487
1506578458321,490
1506578458330,490
1506578458338,491
1506578458346,494
1506578458354,491
1506578458362,495
1506578458371,495
1506578458379,495
1506578458387,496
1506578458395,493
1506578458403,495
1506578458412,493
1506578458420,492
1506578458428,494
1506578458432,490
1506578458440,493
1506578458448,490
1506578458457,489
1506578458465,491
1506578458473,487
1506578458481,488
1506578458489,486
1506578458498,485
1506578458506,487
1506578458514,482
1506578458522,484
1506578458530,481
1506578458538,480
1506578458547,482
1506578458555,479
1506578458563,485
1506578458571,488
1506578458579,494
1506578458588,506
1506578458592,515
1506578458600,533
1506578458608,550
1506578458616,569
1506578458624,593
1506578458633,609
1506578458641,632
1506578458649,648
1506578458657,661
1506578458665,676
1506578458674,677
1506578458682,681
1506578458690,676
1506578458698,667
1506578458707,658
1506578458715,640
1506578458723,628
1506578458731,609
1506578458739,589
1506578458748,574
1506578458752,552
1506578458760,538
1506578458768,522
1506578458776,508
1506578458784,499
1506578458793,487
1506578458801,483
1506578458809,477
1506578458817,473
1506578458825,474
1506578458834,468
1506578458842,470
1506578458850,469
1506578458858,469
1506578458866,474
1506578458875,473
1506578458883,478
1506578458891,481
1506578458899,483
1506578458907,490
1506578458911,491
1506578458920,498
1506578458928,500
1506578458936,503
1506578458944,510
1506578458952,510
1506578458960,515
1506578458969,517
1506578458977,516
1506578458985,518
1506578458993,514
1506578459001,515
1506578459010,511
1506578459018,507
1506578459026,507
1506578459034,498
1506578459042,496
1506578459051,491
1506578459059,484
1506578459067,483
1506578459071,475
1506578459079,474
1506578459087,470
1506578459096,465
1506578459104,466
1506578459112,461
1506578459120,463
1506578459128,462
1506578459137,460
1506578459145,466
1506578459153,463
1506578459161,467
1506578459169,468
1506578459178,469
1506578459186,473
1506578459194,472
1506578459202,476
1506578459210,478
1506578459218,479
1506578459226,484
1506578459231,482
1506578459239,487
1506578459247,489
1506578459255,488
1506578459264,494
1506578459272,491
1506578459280,494
1506578459288,494
1506578459296,493
1506578459304,495
1506578459312,491
1506578459321,495
1506578459329,494
1506578459337,493
1506578459345,495
1506578459353,490
1506578459362,491
1506578459370,490
1506578459378,487
1506578459386,489
1506578459390,483
1506578459398,484
1506578459407,482
1506578459415,480
1506578459424,483
1506578459432,479
1506578459440,483
1506578459448,486
1506578459456,490
1506578459465,502
1506578459473,511
1506578459481,529
1506578459489,546
1506578459497,565
1506578459505,588
1506578459514,606
1506578459522,629
1506578459530,648
1506578459538,661
1506578459546,677
1506578459550,680
1506578459559,683
1506578459567,682
1506578459575,674
1506578459583,666
1506578459591,649
1506578459599,635
1506578459608,616
1506578459616,596
1506578459624,581
1506578459632,558
1506578459640,543
1506578459649,528
1506578459657,511
1506578459665,503
1506578459673,490
1506578459681,486
1506578459690,481
1506578459698,476
1506578459706,478
1506578459714,474
1506578459718,477
1506578459726,479
1506578459735,478
1506578459743,483
1506578459751,481
1506578459759,484
1506578459767,487
1506578459775,486
1506578459784,491
1506578459792,491
1506578459800,495
1506578459808,498
1506578459816,499
1506578459825,505
1506578459833,505
1506578459841,510
1506578459849,512
1506578459857,511
1506578459865,515
1506578459874,512
1506578459878,513
1506578459886,512
1506578459894,508
1506578459902,508
1506578459910,502
1506578459919,500
1506578459927,498
1506578459935,492
1506578459943,491
1506578459952,484
1506578459959,483
1506578459967,480
1506578459976,475
1506578459984,476
1506578459992,471
1506578460000,473
1506578460008,472
1506578460017,469
1506578460025,473
1506578460033,470
1506578460037,473
1506578460046,476
1506578460054,475
1506578460062,481
1506578460070,480
1506578460078,483
1506578460086,485
1506578460094,484
1506578460102,488
1506578460112,485
1506578460120,487
1506578460128,488
1506578460136,485
1506578460144,490
1506578460153,488
1506578460161,489
1506578460169,491
1506578460177,488
1506578460186,491
1506578460193,489
1506578460198,491
1506578460206,492
1506578460214,489
1506578460222,493
1506578460230,490
1506578460239,491
1506578460247,494
1506578460255,490
1506578460263,493
1506578460271,491
1506578460279,492
1506578460288,493
1506578460296,490
1506578460304,493
1506578460312,489
1506578460320,490
1506578460329,491
1506578460337,486
1506578460345,488
1506578460353,485
1506578460357,485
1506578460365,486
1506578460374,482
1506578460382,486
1506578460390,484
1506578460399,489
1506578460406,497
1506578460415,502
1506578460423,517
1506578460431,529
1506578460439,547
1506578460447,568
1506578460455,586
1506578460464,611
1506578460472,630
1506578460480,649
1506578460488,666
1506578460496,676
1506578460505,687
1506578460513,689
1506578460517,688
1506578460525,684
1506578460533,671
1506578460541,662
1506578460550,645
1506578460558,628
1506578460566,611
1506578460574,589
1506578460582,575
1506578460591,556
1506578460599,540
1506578460607,528
1506578460615,512
1506578460623,506
1506578460631,495
1506578460640,490
1506578460648,488
1506578460656,482
1506578460664,484
1506578460672,481
1506578460676,481
1506578460685,484
1506578460693,485
1506578460701,495
1506578460709,497
1506578460717,498
1506578460725,502
1506578460734,500
1506578460742,505
1506578460750,507
1506578460758,509
1506578460766,513
1506578460775,507
1506578460783,510
1506578460791,510
1506578460799,514
1506578460808,518
1506578460816,517
1506578460824,520
1506578460832,517
1506578460836,516
1506578460845,515
1506578460853,504
1506578460861,502
1506578460869,495
1506578460877,489
1506578460886,488
1506578460894,481
1506578460902,481
1506578460910,476
1506578460919,475
1506578460927,474
1506578460935,470
1506578460943,472
1506578460951,469
1506578460959,468
1506578460967,470
1506578460976,468
1506578460984,471
1506578460992,471
1506578460996,473
1506578461004,477
1506578461012,477
1506578461021,482
1506578461029,482
1506578461037,484
1506578461045,490
1506578461053,488
1506578461062,493
1506578461070,494
1506578461079,495
1506578461086,498
1506578461094,497
1506578461103,500
1506578461111,499
1506578461119,499
1506578461127,501
1506578461135,498
1506578461144,501
1506578461152,498
1506578461160,497
1506578461164,499
1506578461172,494
1506578461180,496
1506578461189,494
1506578461197,491
1506578461205,493
1506578461213,489
1506578461221,491
1506578461229,490
1506578461238,489
1506578461246,490
1506578461254,486
1506578461262,490
1506578461270,487
1506578461279,488
1506578461287,491
1506578461295,488
1506578461303,492
1506578461311,492
1506578461319,491
1506578461324,494
1506578461332,490
1506578461340,492
1506578461348,490
1506578461356,488
1506578461364,491
1506578461372,488
1506578461381,493
1506578461389,495
1506578461397,500
1506578461405,513
1506578461413,520
1506578461422,539
1506578461430,556
1506578461438,574
1506578461446,597
1506578461454,614
1506578461462,636
1506578461471,653
1506578461479,667
1506578461483,681
1506578461491,684
1506578461499,689
1506578461507,687
1506578461516,679
1506578461524,672
1506578461532,656
1506578461540,643
1506578461548,624
1506578461557,605
1506578461565,588
1506578461573,566
1506578461581,551
1506578461589,535
1506578461598,520
1506578461606,511
1506578461614,498
1506578461623,493
1506578461631,489
1506578461638,484
1506578461643,484
1506578461651,479
1506578461659,482
1506578461667,481
1506578461675,481
1506578461683,486
1506578461692,484
1506578461700,487
1506578461708,487
1506578461716,486
1506578461725,490
1506578461733,488
1506578461741,492
1506578461749,494
1506578461757,498
1506578461765,505
1506578461773,502
1506578461782,506
1506578461790,508
1506578461798,511
1506578461802,516
1506578461811,515
1506578461819,517
1506578461827,516
1506578461835,514
1506578461844,512
1506578461852,505
1506578461860,499
1506578461869,490
1506578461877,482
1506578461885,479
1506578461893,472
1506578461901,470
1506578461910,467
1506578461918,463
1506578461926,466
1506578461934,462
1506578461942,464
1506578461951,464
1506578461959,463
1506578461963,468
1506578461971,467
1506578461979,471
1506578461987,473
1506578461996,473
1506578462004,478
1506578462012,478
1506578462020,481
1506578462028,483
1506578462036,483
1506578462045,488
1506578462053,485
1506578462061,488
1506578462069,489
1506578462077,488
1506578462086,492
1506578462094,488
1506578462102,491
1506578462110,491
1506578462119,489
1506578462122,492
1506578462131,489
1506578462139,492
1506578462147,490
1506578462155,488
1506578462163,491
1506578462172,486
1506578462180,488
1506578462188,487
1506578462196,483
1506578462204,486
1506578462212,483
1506578462221,483
1506578462229,485
1506578462237,482
1506578462245,485
1506578462253,482
1506578462262,483
1506578462270,484
1506578462278,481
1506578462282,484
1506578462290,480
1506578462298,481
1506578462307,481
1506578462315,479
1506578462323,483
1506578462331,484
1506578462339,487
1506578462348,495
1506578462356,501
1506578462364,515
1506578462372,525
1506578462380,543
1506578462388,562
1506578462397,578
1506578462405,600
1506578462413,614
1506578462421,631
1506578462429,645
1506578462438,653
1506578462442,661
1506578462450,661
1506578462458,660
1506578462466,654
1506578462474,641
1506578462483,633
1506578462491,615
1506578462499,600
1506578462508,583
1506578462515,563
1506578462524,549
1506578462532,530
1506578462540,516
1506578462548,503
1506578462557,490
1506578462565,483
1506578462573,472
1506578462581,467
1506578462589,463
1506578462598,460
1506578462602,461
1506578462610,457
1506578462618,459
1506578462626,461
1506578462634,460
1506578462643,465
1506578462651,465
1506578462659,470
1506578462667,473
1506578462675,474
1506578462684,483
1506578462692,484
1506578462700,490
1506578462708,495
1506578462717,497
1506578462725,503
1506578462733,503
1506578462741,507
1506578462749,510
1506578462757,508
1506578462761,512
1506578462770,508
1506578462778,507
1506578462786,506
1506578462794,500
1506578462802,500
1506578462810,493
1506578462819,489
1506578462827,487
1506578462835,479
1506578462843,478
1506578462851,472
1506578462860,471
1506578462868,469
1506578462876,463
1506578462884,465
1506578462892,459
1506578462901,460
1506578462909,461
1506578462917,458
1506578462925,461
1506578462929,460
1506578462938,462
1506578462945,464
1506578462954,462
1506578462962,469
1506578462970,467
1506578462978,470
1506578462987,472
1506578462995,470
1506578463003,476
1506578463011,475
1506578463019,476
1506578463027,480
1506578463036,478
1506578463044,482
1506578463052,480
1506578463060,481
1506578463068,484
1506578463077,481
1506578463085,486
1506578463089,485
1506578463097,487
1506578463105,489
1506578463113,486
1506578463122,489
1506578463130,487
1506578463138,487
1506578463146,488
1506578463154,484
1506578463163,486
1506578463171,483
1506578463179,483
1506578463187,484
1506578463195,479
1506578463203,482
1506578463212,479
1506578463220,479
1506578463228,482
1506578463236,482
1506578463244,491
1506578463248,497
1506578463257,508
1506578463265,524
1506578463274,538
1506578463282,561
1506578463290,578
1506578463298,599
1506578463306,621
1506578463314,636
1506578463323,654
1506578463331,665
1506578463339,672
1506578463347,677
1506578463355,672
1506578463364,669
1506578463372,658
1506578463380,645
1506578463388,632
1506578463396,611
1506578463404,596
1506578463409,574
1506578463417,556
1506578463425,541
1506578463433,522
1506578463441,510
1506578463450,496
1506578463458,485
1506578463466,479
1506578463474,470
1506578463482,469
1506578463490,465
1506578463499,464
1506578463507,467
1506578463515,465
1506578463523,469
1506578463531,469
1506578463540,471
1506578463548,476
1506578463556,475
1506578463564,484
1506578463568,484
1506578463576,486
1506578463585,491
1506578463593,489
1506578463601,495
1506578463609,497
1506578463618,498
1506578463625,503
1506578463634,502
1506578463642,505
1506578463650,505
1506578463658,505
1506578463666,506
1506578463675,502
1506578463683,505
1506578463691,501
1506578463699,498
1506578463707,497
1506578463715,489
1506578463724,489
1506578463728,483
1506578463736,479
1506578463744,477
1506578463752,470
1506578463761,470
1506578463769,466
1506578463777,465
1506578463785,466
1506578463793,461
1506578463802,464
1506578463810,463
1506578463818,461
1506578463826,465
1506578463834,463
1506578463842,467
1506578463851,468
1506578463859,469
1506578463867,474
1506578463875,471
1506578463883,477
1506578463887,478
1506578463896,479
1506578463904,483
1506578463912,481
1506578463920,484
1506578463928,484
1506578463937,484
1506578463945,487
1506578463953,484
1506578463962,488
1506578463970,486
1506578463978,485
1506578463986,489
1506578463994,485
1506578464003,489
1506578464011,488
1506578464019,486
1506578464027,489
1506578464035,486
1506578464043,488
1506578464048,487
1506578464056,486
1506578464064,487
1506578464072,483
1506578464080,486
1506578464088,484
1506578464097,482
1506578464105,485
1506578464113,481
1506578464121,483
1506578464129,481
1506578464138,479
1506578464146,482
1506578464154,477
1506578464162,481
1506578464170,480
1506578464178,481
1506578464186,487
1506578464194,489
1506578464202,501
1506578464207,512
1506578464215,524
1506578464223,544
1506578464231,559
1506578464239,582
1506578464248,602
1506578464256,620
1506578464264,642
1506578464273,654
1506578464281,667
1506578464289,674
1506578464297,675
1506578464305,676
1506578464314,668
1506578464322,661
1506578464330,648
1506578464338,630
1506578464346,615
1506578464355,593
1506578464363,577
1506578464371,558
1506578464375,538
1506578464383,525
1506578464391,506
1506578464400,496
1506578464408,486
1506578464416,476
1506578464424,473
1506578464432,466
1506578464440,465
1506578464449,464
1506578464457,462
1506578464465,467
1506578464473,465
1506578464481,469
1506578464490,471
1506578464498,471
1506578464506,478
1506578464514,478
1506578464522,482
1506578464530,484
1506578464535,485
1506578464543,491
1506578464551,490
1506578464559,496
1506578464567,496
1506578464575,496
1506578464584,501
1506578464592,498
1506578464600,501
1506578464608,500
1506578464617,498
1506578464625,500
1506578464633,497
1506578464641,496
1506578464649,495
1506578464658,490
1506578464666,490
1506578464674,484
1506578464682,483
1506578464690,480
1506578464695,474
1506578464703,475
1506578464711,468
1506578464719,469
1506578464727,468
1506578464736,464
1506578464744,467
1506578464752,464
1506578464760,466
1506578464768,468
1506578464777,467
1506578464785,474
1506578464793,472
1506578464801,475
1506578464809,476
1506578464818,476
1506578464826,481
1506578464834,479
1506578464842,483
1506578464850,485
1506578464854,485
1506578464863,489
1506578464871,486
1506578464879,489
1506578464887,491
1506578464895,488
1506578464903,492
1506578464912,491
1506578464920,493
1506578464928,495
1506578464936,493
1506578464944,495
1506578464953,492
1506578464961,493
1506578464969,494
1506578464977,490
1506578464985,492
1506578464993,490
1506578465002,490
1506578465010,490
1506578465014,487
1506578465022,489
1506578465030,485
1506578465039,485
1506578465047,486
1506578465055,481
1506578465063,484
1506578465071,479
1506578465079,480
1506578465088,479
1506578465096,475
1506578465104,477
1506578465112,473
1506578465120,474
1506578465129,473
1506578465137,471
1506578465145,476
1506578465153,479
1506578465161,488
1506578465169,500
1506578465174,511
1506578465182,532
1506578465190,550
1506578465198,572
1506578465206,593
1506578465215,611
1506578465223,633
1506578465231,645
1506578465239,657
1506578465247,666
1506578465255,666
1506578465264,668
1506578465272,658
1506578465280,648
1506578465288,636
1506578465296,617
1506578465305,602
1506578465313,581
1506578465321,564
1506578465329,546
1506578465333,525
1506578465341,514
1506578465350,497
1506578465358,486
1506578465366,479
1506578465375,469
1506578465383,467
1506578465391,462
1506578465399,460
1506578465407,463
1506578465415,461
1506578465423,465
1506578465431,464
1506578465440,468
1506578465448,472
1506578465456,470
1506578465464,476
1506578465472,477
1506578465481,480
1506578465489,484
1506578465493,483
1506578465501,489
1506578465509,490
1506578465518,492
1506578465525,496
1506578465534,495
1506578465542,501
1506578465550,499
1506578465558,500
1506578465567,503
1506578465575,499
1506578465583,501
1506578465591,499
1506578465599,498
1506578465607,497
1506578465616,492
1506578465624,492
1506578465632,487
1506578465640,483
1506578465648,482
1506578465652,475
1506578465661,476
1506578465669,470
1506578465678,468
1506578465686,467
1506578465693,463
1506578465702,464
1506578465710,461
1506578465718,460
1506578465726,462
1506578465734,459
1506578465743,464
1506578465751,462
1506578465759,464
1506578465767,468
1506578465776,466
1506578465784,471
1506578465792,471
1506578465800,473
1506578465808,476
1506578465813,474
1506578465821,478
1506578465829,477
1506578465837,478
1506578465845,480
1506578465853,477
1506578465862,481
1506578465870,480
1506578465879,479
1506578465886,482
1506578465894,479
1506578465903,482
1506578465911,479
1506578465919,479
1506578465927,481
1506578465935,476
1506578465944,478
1506578465952,476
1506578465960,474
1506578465968,475
1506578465972,470
1506578465980,471
1506578465989,469
1506578465997,468
1506578466005,471
1506578466014,470
1506578466022,476
1506578466030,481
1506578466038,489
1506578466046,504
1506578466055,513
1506578466063,533
1506578466071,550
1506578466079,569
1506578466087,591
1506578466095,605
1506578466104,624
1506578466112,635
1506578466120,643
1506578466128,652
1506578466136,649
1506578466140,650
1506578466149,642
1506578466157,630
1506578466165,620
1506578466173,601
1506578466181,587
1506578466189,568
1506578466198,549
1506578466206,534
1506578466214,514
1506578466222,502
1506578466230,487
1506578466239,475
1506578466247,469
1506578466255,457
1506578466263,454
1506578466271,450
1506578466280,447
1506578466288,449
1506578466296,446
1506578466300,449
1506578466308,449
1506578466316,449
1506578466325,455
1506578466333,456
1506578466341,463
1506578466349,467
1506578466357,470
1506578466365,478
1506578466374,480
1506578466382,488
1506578466390,493
1506578466398,495
1506578466406,502
1506578466415,501
1506578466423,505
1506578466431,505
1506578466439,504
1506578466447,506
1506578466455,501
1506578466460,501
1506578466468,499
1506578466476,494
1506578466484,494
1506578466492,486
1506578466500,486
1506578466509,482
1506578466517,478
1506578466525,477
1506578466534,471
1506578466542,471
1506578466550,469
1506578466558,466
1506578466566,469
1506578466575,464
1506578466583,466
1506578466591,466
1506578466599,464
1506578466607,467
1506578466615,464
1506578466620,466
1506578466628,467
1506578466636,468
1506578466644,473
1506578466652,470
1506578466661,474
1506578466669,475
1506578466677,475
1506578466685,480
1506578466693,479
1506578466702,482
1506578466710,483
1506578466718,482
1506578466726,486
1506578466734,484
1506578466742,487
1506578466751,487
1506578466759,485
1506578466767,489
1506578466775,485
1506578466779,486
1506578466787,486
1506578466796,484
1506578466804,486
1506578466812,483
1506578466820,486
1506578466828,488
1506578466837,490
1506578466845,499
1506578466853,504
1506578466861,517
1506578466869,533
1506578466878,547
1506578466886,569
1506578466894,584
1506578466902,605
1506578466910,623
1506578466919,636
1506578466927,651
1506578466935,657
1506578466939,664
1506578466947,664
1506578466955,657
1506578466963,652
1506578466972,638
1506578466980,626
1506578466988,611
1506578466996,591
1506578467004,576
1506578467013,555
1506578467021,540
1506578467029,524
1506578467037,507
1506578467045,498
1506578467054,485
1506578467062,478
1506578467070,473
1506578467079,466
1506578467086,467
1506578467094,462
1506578467099,463
1506578467107,464
1506578467115,463
1506578467123,468
1506578467131,467
1506578467139,471
1506578467147,475
1506578467155,475
1506578467165,482
1506578467173,481
1506578467181,485
1506578467189,490
1506578467198,490
1506578467205,496
1506578467214,496
1506578467222,499
1506578467230,502
1506578467239,501
1506578467246,505
1506578467254,502
1506578467259,504
1506578467267,505
1506578467275,500
1506578467283,501
1506578467291,496
1506578467300,493
1506578467308,492
1506578467316,486
1506578467324,485
1506578467332,478
1506578467340,477
1506578467349,476
1506578467357,471
1506578467365,472
1506578467373,468
1506578467381,467
1506578467390,467
1506578467398,463
1506578467406,466
1506578467414,464
1506578467418,466
1506578467426,468
1506578467435,467
1506578467443,471
1506578467451,470
1506578467459,473
1506578467467,476
1506578467475,474
1506578467484,479
1506578467492,479
1506578467500,481
1506578467508,484
1506578467516,484
1506578467525,491
1506578467533,489
1506578467541,490
1506578467549,492
1506578467557,488
1506578467566,493
1506578467574,491
1506578467582,492
1506578467586,494
1506578467594,490
1506578467602,492
1506578467611,489
1506578467619,490
1506578467627,490
1506578467635,486
1506578467643,488
1506578467651,485
1506578467660,485
1506578467668,487
1506578467676,485
1506578467684,493
1506578467692,497
1506578467701,506
1506578467709,519
1506578467717,530
1506578467725,550
1506578467733,566
1506578467741,586
1506578467746,606
1506578467754,620
1506578467762,638
1506578467770,648
1506578467779,656
1506578467787,662
1506578467795,659
1506578467803,658
1506578467812,649
1506578467820,638
1506578467828,626
1506578467836,608
1506578467844,595
1506578467852,576
1506578467861,559
1506578467869,544
1506578467877,526
1506578467885,515
1506578467893,501
1506578467902,491
1506578467906,484
1506578467914,475
1506578467922,472
1506578467930,468
1506578467939,466
1506578467947,467
1506578467955,464
1506578467963,467
1506578467971,466
1506578467979,467
1506578467988,472
1506578467996,470
1506578468004,475
1506578468012,476
1506578468020,479
1506578468029,483
1506578468037,483
1506578468045,489
1506578468053,491
1506578468061,493
1506578468065,498
1506578468074,497
1506578468082,501
1506578468090,501
1506578468099,502
1506578468107,504
1506578468114,501
1506578468123,503
1506578468131,501
1506578468139,498
1506578468147,497
1506578468155,490
1506578468164,490
1506578468172,486
1506578468180,482
1506578468188,481
1506578468196,475
1506578468204,474
1506578468213,470
1506578468221,467
1506578468225,466
1506578468233,461
1506578468241,463
1506578468250,461
1506578468258,460
1506578468266,464
1506578468274,462
1506578468282,467
1506578468291,467
1506578468299,467
1506578468307,471
1506578468315,470
1506578468323,474
1506578468331,475
1506578468340,476
1506578468348,480
1506578468356,478
1506578468364,483
1506578468372,483
1506578468380,483
1506578468384,488
1506578468392,485
1506578468401,490
1506578468409,490
1506578468417,489
1506578468425,492
1506578468433,488
1506578468441,490
1506578468450,488
1506578468459,484
1506578468467,486
1506578468475,482
1506578468483,482
1506578468492,481
1506578468500,479
1506578468508,483
1506578468516,481
1506578468524,488
1506578468532,495
1506578468541,504
1506578468545,519
1506578468553,532
1506578468561,551
1506578468569,570
1506578468578,587
1506578468586,609
1506578468594,624
1506578468602,640
1506578468610,653
1506578468618,657
1506578468627,663
1506578468635,659
1506578468643,656
1506578468651,648
1506578468659,635
1506578468668,625
1506578468676,606
1506578468684,592
1506578468692,576
1506578468700,558
1506578468704,544
1506578468713,526
1506578468721,516
1506578468729,504
1506578468737,492
1506578468745,488
1506578468753,478
1506578468762,476
1506578468770,472
1506578468778,469
1506578468786,471
1506578468794,467
1506578468803,469
1506578468811,469
1506578468819,469
1506578468827,474
1506578468835,473
1506578468843,477
1506578468852,480
1506578468860,481
1506578468864,488
1506578468872,490
1506578468880,495
1506578468888,499
1506578468897,502
1506578468905,508
1506578468913,506
1506578468921,510
1506578468929,510
1506578468938,509
1506578468946,511
1506578468954,506
1506578468962,506
1506578468970,503
1506578468979,497
1506578468987,496
1506578468995,489
1506578469003,487
1506578469011,484
1506578469020,478
1506578469024,478
1506578469032,473
1506578469040,470
1506578469048,470
1506578469056,467
1506578469064,469
1506578469073,466
1506578469081,468
1506578469089,469
1506578469097,467
1506578469105,474
1506578469114,472
1506578469122,476
1506578469130,479
1506578469138,477
1506578469146,483
1506578469155,482
1506578469164,485
1506578469172,488
1506578469180,488
1506578469184,493
1506578469192,491
1506578469200,494
1506578469208,495
1506578469217,492
1506578469225,495
1506578469233,493
1506578469241,492
1506578469249,493
1506578469258,490
1506578469266,493
1506578469274,492
1506578469282,493
1506578469290,495
1506578469298,495
1506578469307,505
1506578469315,510
1506578469323,522
1506578469331,537
1506578469339,548
1506578469347,568
1506578469351,582
1506578469360,600
1506578469368,616
1506578469376,626
1506578469384,640
1506578469393,644
1506578469401,649
1506578469409,650
1506578469417,642
1506578469425,637
1506578469433,624
1506578469442,611
1506578469450,597
1506578469458,579
1506578469466,566
1506578469474,549
1506578469482,535
1506578469491,523
1506578469499,509
1506578469507,502
1506578469511,492
1506578469519,486
1506578469528,483
1506578469536,477
1506578469544,478
1506578469552,474
1506578469560,474
1506578469568,476
1506578469577,473
1506578469585,477
1506578469593,476
1506578469601,477
1506578469609,480
1506578469618,479
1506578469626,484
1506578469634,485
1506578469642,486
1506578469650,492
1506578469658,490
1506578469666,497
1506578469671,498
1506578469679,500
1506578469687,503
1506578469695,501
1506578469703,505
1506578469711,503
1506578469719,504
1506578469727,505
1506578469736,499
1506578469744,500
1506578469752,496
1506578469760,493
1506578469769,493
1506578469777,486
1506578469785,486
1506578469794,481
1506578469802,478
1506578469810,477
1506578469818,472
1506578469826,473
1506578469830,468
1506578469839,466
1506578469847,467
1506578469855,463
1506578469864,465
1506578469872,464
1506578469880,465
1506578469888,468
1506578469896,467
1506578469905,472
1506578469913,471
1506578469921,474
1506578469929,478
1506578469937,477
1506578469945,481
1506578469954,481
1506578469962,482
1506578469970,484
1506578469978,482
1506578469986,486
1506578469990,485
1506578469999,484
1506578470007,486
1506578470015,482
1506578470023,486
1506578470031,484
1506578470040,482
1506578470048,483
1506578470056,480
1506578470064,482
1506578470072,483
1506578470081,486
1506578470089,494
1506578470097,499
1506578470105,513
1506578470113,524
1506578470121,540
1506578470130,559
1506578470138,572
1506578470146,592
1506578470150,605
1506578470158,617
1506578470166,629
1506578470175,632
1506578470183,636
1506578470191,634
1506578470199,629
1506578470207,622
1506578470216,608
1506578470224,598
1506578470232,582
1506578470240,569
1506578470248,556
1506578470257,536
1506578470265,525
1506578470273,512
1506578470281,499
1506578470289,493
1506578470298,481
1506578470306,477
1506578470310,472
1506578470318,467
1506578470326,469
1506578470334,463
1506578470343,465
1506578470351,465
1506578470359,464
1506578470367,467
1506578470375,466
1506578470384,469
1506578470392,471
1506578470400,474
1506578470408,477
1506578470416,477
1506578470424,484
1506578470433,486
1506578470441,488
1506578470449,495
1506578470457,494
1506578470465,498
1506578470469,499
1506578470478,499
1506578470486,502
1506578470494,498
1506578470502,500
1506578470510,497
1506578470518,494
1506578470527,494
1506578470535,487
1506578470543,487
1506578470551,482
1506578470559,477
1506578470568,477
1506578470576,470
1506578470584,469
1506578470593,467
1506578470601,463
1506578470609,464
1506578470617,459
1506578470625,461
1506578470630,461
1506578470638,459
1506578470646,463
1506578470654,459
1506578470662,463
1506578470670,464
1506578470679,464
1506578470687,468
1506578470695,467
1506578470703,470
1506578470711,471
1506578470720,472
1506578470728,476
1506578470736,474
1506578470744,477
1506578470752,479
1506578470760,478
1506578470769,482
1506578470777,479
1506578470785,480
1506578470793,480
1506578470797,479
1506578470806,481
1506578470814,476
1506578470822,477
1506578470830,476
1506578470838,474
1506578470846,477
1506578470855,474
1506578470863,479
1506578470871,484
1506578470879,490
1506578470887,503
1506578470896,513
1506578470904,529
1506578470912,547
1506578470920,563
1506578470928,585
1506578470936,599
1506578470945,616
1506578470953,628
1506578470957,635
1506578470965,643
1506578470973,641
1506578470982,639
1506578470990,632
1506578470998,621
1506578471006,611
1506578471014,593
1506578471022,578
1506578471031,562
1506578471039,542
1506578471047,530
1506578471055,512
1506578471063,499
1506578471071,489
1506578471080,477
1506578471088,473
1506578471096,464
1506578471104,462
1506578471112,460
1506578471117,457
1506578471125,460
1506578471133,457
1506578471141,460
1506578471149,463
1506578471158,462
1506578471166,468
1506578471174,469
1506578471182,474
1506578471190,480
1506578471198,482
1506578471206,489
1506578471215,491
1506578471223,496
1506578471231,500
1506578471239,501
1506578471247,508
1506578471256,507
1506578471264,509
1506578471272,511
1506578471277,508
1506578471285,509
1506578471293,505
1506578471301,503
1506578471309,501
1506578471318,495
1506578471326,494
1506578471334,488
1506578471342,486
1506578471350,484
1506578471359,478
1506578471367,479
1506578471375,474
1506578471383,474
1506578471391,473
1506578471400,470
1506578471408,471
1506578471416,469
1506578471424,470
1506578471432,472
1506578471436,470
1506578471444,475
1506578471453,474
1506578471461,476
1506578471469,480
1506578471478,479
1506578471485,483
1506578471494,483
1506578471502,485
1506578471510,487
1506578471519,486
1506578471526,490
1506578471535,488
1506578471543,490
1506578471551,493
1506578471559,490
1506578471567,494
1506578471575,493
1506578471584,493
1506578471592,495
1506578471596,492
1506578471604,494
1506578471612,491
1506578471620,490
1506578471629,492
1506578471637,486
1506578471645,488
1506578471653,485
1506578471661,483
1506578471670,484
1506578471678,482
1506578471686,487
1506578471694,489
1506578471702,495
1506578471711,505
1506578471719,514
1506578471727,532
1506578471735,547
1506578471743,565
1506578471751,587
1506578471755,602
1506578471764,623
1506578471772,635
1506578471780,647
1506578471788,657
1506578471796,659
1506578471805,662
1506578471813,656
1506578471821,649
1506578471829,640
1506578471838,622
1506578471845,610
1506578471854,591
1506578471862,574
1506578471870,560
1506578471879,541
1506578471886,528
1506578471895,513
1506578471903,501
1506578471911,494
1506578471915,482
1506578471923,479
1506578471932,474
1506578471940,472
1506578471948,473
1506578471957,470
1506578471965,474
1506578471973,474
1506578471981,474
1506578471989,478
1506578471997,476
1506578472006,480
1506578472014,480
1506578472022,483
1506578472030,488
1506578472038,487
1506578472046,493
1506578472054,494
1506578472062,496
1506578472071,501
1506578472075,499
1506578472083,505
1506578472091,505
1506578472099,506
1506578472107,508
1506578472116,505
1506578472124,508
1506578472132,505
1506578472140,502
1506578472149,503
1506578472157,496
1506578472165,497
1506578472173,492
1506578472182,487
1506578472190,487
1506578472198,481
1506578472206,481
1506578472214,477
1506578472222,474
1506578472230,475
1506578472235,469
1506578472242,471
1506578472251,470
1506578472259,469
1506578472267,472
1506578472275,468
1506578472283,472
1506578472292,473
1506578472300,473
1506578472308,478
1506578472316,477
1506578472325,481
1506578472333,482
1506578472341,483
1506578472349,489
1506578472358,486
1506578472366,491
1506578472374,491
1506578472382,491
1506578472391,494
1506578472399,491
1506578472403,494
1506578472411,494
1506578472419,493
1506578472428,496
1506578472436,491
1506578472444,493
1506578472452,491
1506578472460,490
1506578472468,491
1506578472477,487
1506578472485,489
1506578472493,488
1506578472501,486
1506578472509,489
1506578472518,483
1506578472526,486
1506578472534,485
1506578472542,483
1506578472550,485
1506578472558,482
1506578472563,483
1506578472571,483
1506578472579,481
1506578472587,484
1506578472595,482
1506578472604,486
1506578472612,491
1506578472620,497
1506578472628,510
1506578472636,520
1506578472644,538
1506578472653,555
1506578472661,572
1506578472669,594
1506578472677,609
1506578472685,627
1506578472694,642
1506578472702,652
1506578472710,662
1506578472718,661
1506578472722,662
1506578472730,657
1506578472739,646
1506578472747,636
1506578472755,619
1506578472763,604
1506578472771,587
1506578472780,568
1506578472788,554
1506578472796,535
1506578472804,523
1506578472812,509
1506578472820,497
1506578472829,491
1506578472837,480
1506578472845,477
1506578472853,473
1506578472861,468
1506578472870,470
1506578472878,467
1506578472882,469
1506578472890,469
1506578472898,468
1506578472906,473
1506578472915,471
1506578472923,475
1506578472931,478
1506578472939,478
1506578472947,482
1506578472956,482
1506578472964,486
1506578472972,488
1506578472980,488
1506578472988,494
1506578472996,492
1506578473005,497
1506578473013,499
1506578473021,497
1506578473029,501
1506578473038,499
1506578473041,500
1506578473050,499
1506578473058,495
1506578473066,496
1506578473074,490
1506578473083,489
1506578473091,486
1506578473099,480
1506578473107,481
1506578473116,475
1506578473124,473
1506578473132,472
1506578473140,467
1506578473148,468
1506578473157,465
1506578473165,466
1506578473173,466
1506578473181,464
1506578473189,468
1506578473197,466
1506578473202,467
1506578473210,469
1506578473218,467
1506578473226,473
1506578473234,472
1506578473243,474
1506578473251,478
1506578473259,476
1506578473267,482
1506578473275,482
1506578473283,484
1506578473292,488
1506578473300,487
1506578473308,491
1506578473316,490
1506578473324,490
1506578473333,492
1506578473341,488
1506578473349,491
1506578473357,489
1506578473361,490
1506578473369,490
1506578473378,487
1506578473386,490
1506578473394,486
1506578473402,487
1506578473410,488
1506578473419,483
1506578473427,485
1506578473435,483
1506578473443,483
1506578473451,483
1506578473459,480
1506578473468,481
1506578473476,477
1506578473484,477
1506578473492,477
1506578473500,472
1506578473508,475
1506578473517,473
1506578473521,475
1506578473529,480
1506578473537,481
1506578473545,492
1506578473553,501
1506578473562,514
1506578473570,531
1506578473578,546
1506578473586,567
1506578473595,584
1506578473603,603
1506578473611,621
1506578473619,631
1506578473627,644
1506578473635,647
1506578473644,650
1506578473652,648
1506578473660,638
1506578473668,631
1506578473676,616
1506578473680,601
1506578473689,585
1506578473697,565
1506578473705,550
1506578473713,531
1506578473721,515
1506578473729,502
1506578473738,487
1506578473746,478
1506578473754,469
1506578473762,462
1506578473771,459
1506578473779,453
1506578473787,455
1506578473795,454
1506578473804,453
1506578473812,457
1506578473820,454
1506578473828,460
1506578473836,460
1506578473841,463
1506578473849,468
1506578473857,469
1506578473866,476
1506578473873,480
1506578473882,484
1506578473890,492
1506578473898,492
1506578473906,499
1506578473914,502
1506578473922,504
1506578473931,509
1506578473939,506
1506578473947,510
1506578473955,508
1506578473963,506
1506578473971,506
1506578473980,499
1506578473988,498
1506578473996,493
1506578474004,488
1506578474008,486
1506578474016,480
1506578474025,479
1506578474033,474
1506578474041,469
1506578474049,468
1506578474058,463
1506578474066,464
1506578474074,461
1506578474082,458
1506578474090,461
1506578474099,455
1506578474107,459
1506578474115,459
1506578474123,460
1506578474131,464
1506578474139,463
1506578474148,467
1506578474156,467
1506578474164,470
1506578474168,475
1506578474176,474
1506578474184,479
1506578474193,480
1506578474201,480
1506578474209,484
1506578474217,483
1506578474225,486
1506578474234,486
1506578474242,486
1506578474250,489
1506578474258,486
1506578474266,490
1506578474275,490
1506578474283,489
1506578474291,492
1506578474299,488
1506578474307,491
1506578474315,488
1506578474323,487
1506578474328,489
1506578474336,484
1506578474344,484
1506578474352,487
1506578474361,487
1506578474369,491
1506578474377,488
1506578474385,494
1506578474393,500
1506578474402,509
1506578474410,526
1506578474418,538
1506578474426,559
1506578474434,578
1506578474442,594
1506578474451,613
1506578474459,626
1506578474467,640
1506578474475,646
1506578474483,649
1506578474487,652
1506578474496,644
1506578474504,640
1506578474512,627
1506578474520,612
1506578474528,600
1506578474537,580
1506578474545,564
1506578474553,547
1506578474561,529
1506578474569,517
1506578474578,500
1506578474586,492
1506578474594,482
1506578474602,473
1506578474610,471
1506578474618,464
1506578474626,464
1506578474635,464
1506578474643,462
1506578474647,466
1506578474656,464
1506578474664,466
1506578474672,468
1506578474680,469
1506578474688,476
1506578474697,475
1506578474705,481
1506578474713,485
1506578474721,486
1506578474729,495
1506578474738,496
1506578474746,500
1506578474754,504
1506578474763,505
1506578474770,510
1506578474778,509
1506578474787,512
1506578474795,513
1506578474803,509
1506578474807,512
1506578474815,506
1506578474823,504
1506578474832,503
1506578474840,496
1506578474848,494
1506578474856,486
1506578474864,484
1506578474873,481
1506578474881,475
1506578474889,475
1506578474897,469
1506578474905,470
1506578474913,468
1506578474922,465
1506578474930,468
1506578474938,466
1506578474946,466
1506578474955,469
1506578474963,468
1506578474967,473
1506578474975,471
1506578474983,474
1506578474991,477
1506578474999,477
1506578475008,483
1506578475016,482
1506578475024,484
1506578475032,487
1506578475040,485
1506578475048,490
1506578475057,489
1506578475065,491
1506578475073,492
1506578475082,490
1506578475089,494
1506578475098,491
1506578475106,492
1506578475114,493
1506578475122,490
1506578475126,493
1506578475134,490
1506578475143,491
1506578475151,492
1506578475159,487
1506578475167,489
1506578475175,486
1506578475184,488
1506578475192,488
1506578475200,484
1506578475208,488
1506578475216,484
1506578475225,484
1506578475233,485
1506578475241,481
1506578475249,484
1506578475257,482
1506578475265,480
1506578475274,481
1506578475282,477
1506578475286,481
1506578475294,479
1506578475303,481
1506578475311,488
1506578475319,493
1506578475327,507
1506578475335,518
1506578475344,536
1506578475352,556
1506578475360,573
1506578475368,596
1506578475376,613
1506578475385,633
1506578475393,649
1506578475401,658
1506578475409,670
1506578475417,671
1506578475426,670
1506578475434,667
1506578475442,653
1506578475446,644
1506578475454,626
1506578475462,608
1506578475471,592
1506578475479,570
1506578475487,556
1506578475495,536
1506578475503,520
1506578475511,507
1506578475520,492
1506578475528,487
1506578475536,476
1506578475544,471
1506578475552,470
1506578475561,464
1506578475569,466
1506578475577,464
1506578475585,465
1506578475593,470
1506578475601,469
1506578475610,476
1506578475614,477
1506578475622,480
1506578475630,485
1506578475638,484
1506578475647,491
1506578475655,492
1506578475663,494
1506578475671,498
1506578475679,497
1506578475687,502
1506578475696,502
1506578475704,504
1506578475712,508
1506578475720,505
1506578475728,508
1506578475737,507
1506578475745,505
1506578475753,506
1506578475761,500
1506578475769,501
1506578475773,496
1506578475782,493
1506578475790,492
1506578475798,485
1506578475806,486
1506578475814,480
1506578475822,478
1506578475831,477
1506578475839,471
1506578475847,473
1506578475855,471
1506578475863,470
1506578475872,472
1506578475880,469
1506578475888,471
1506578475896,470
1506578475904,471
1506578475913,476
1506578475921,474
1506578475929,479
1506578475933,480
1506578475941,481
1506578475949,485
1506578475958,485
1506578475966,489
1506578475974,489
1506578475982,490
1506578475990,493
1506578475998,490
1506578476007,495
1506578476015,493
1506578476023,492
1506578476031,495
1506578476039,491
1506578476048,493
1506578476056,491
1506578476064,491
1506578476072,493
1506578476080,489
1506578476088,491
1506578476093,489
1506578476101,486
1506578476109,489
1506578476117,485
1506578476125,486
1506578476134,485
1506578476142,485
1506578476150,487
1506578476159,484
1506578476167,488
1506578476174,487
1506578476183,487
1506578476191,491
1506578476199,487
1506578476207,490
1506578476215,489
1506578476224,488
1506578476232,490
1506578476240,486
1506578476248,490
1506578476253,487
1506578476261,486
1506578476269,488
1506578476277,485
1506578476285,489
1506578476293,493
1506578476301,497
1506578476310,509
1506578476318,518
1506578476326,535
1506578476334,552
1506578476342,569
1506578476350,591
1506578476359,607
1506578476367,628
1506578476376,645
1506578476384,656
1506578476392,670
1506578476400,673
1506578476408,676
1506578476412,672
1506578476421,665
1506578476429,657
1506578476437,641
1506578476445,627
1506578476453,610
1506578476461,589
1506578476470,574
1506578476478,552
1506578476486,537
1506578476494,521
1506578476503,504
1506578476511,495
1506578476519,481
1506578476527,474
1506578476535,469
1506578476544,463
1506578476552,464
1506578476560,459
1506578476568,462
1506578476572,464
1506578476581,464
1506578476589,469
1506578476597,470
1506578476605,473
1506578476613,475
1506578476621,477
1506578476630,483
1506578476638,483
1506578476646,489
1506578476654,492
1506578476662,493
1506578476671,499
1506578476679,500
1506578476687,503
1506578476695,506
1506578476703,504
1506578476711,508
1506578476720,506
1506578476728,507
1506578476732,506
1506578476740,502
1506578476749,503
1506578476757,497
1506578476765,495
1506578476773,492
1506578476781,486
1506578476789,487
1506578476797,481
1506578476806,480
1506578476814,477
1506578476822,472
1506578476830,474
1506578476838,470
1506578476847,470
1506578476855,471
1506578476863,468
1506578476871,471
1506578476879,468
1506578476887,470
1506578476892,472
1506578476900,470
1506578476908,474
1506578476916,474
1506578476924,477
1506578476933,479
1506578476941,479
1506578476949,483
1506578476957,482
1506578476965,484
1506578476973,486
1506578476982,485
1506578476990,491
1506578476998,489
1506578477006,490
1506578477014,491
1506578477023,490
1506578477031,493
1506578477039,491
1506578477047,491
1506578477055,495
1506578477059,492
1506578477068,495
1506578477076,491
1506578477084,491
1506578477092,492
1506578477100,488
1506578477109,490
1506578477117,487
1506578477125,486
1506578477134,486
1506578477141,483
1506578477149,485
1506578477158,481
1506578477166,483
1506578477174,484
1506578477182,481
1506578477190,483
1506578477199,480
1506578477207,480
1506578477215,481
1506578477219,477
1506578477228,479
1506578477236,477
1506578477244,477
1506578477252,479
1506578477260,478
1506578477268,484
1506578477277,487
1506578477284,496
1506578477293,510
1506578477301,521
1506578477309,541
1506578477317,558
1506578477326,578
1506578477334,599
1506578477342,614
1506578477350,633
1506578477358,643
1506578477366,653
1506578477374,660
1506578477379,658
1506578477387,659
1506578477395,650
1506578477403,639
1506578477411,628
1506578477420,609
1506578477428,593
1506578477436,574
1506578477444,555
1506578477452,538
1506578477460,518
1506578477469,506
1506578477477,491
1506578477485,479
1506578477493,473
1506578477502,464
1506578477510,462
1506578477518,458
1506578477526,457
1506578477534,459
1506578477539,458
1506578477546,462
1506578477555,462
1506578477563,465
1506578477571,469
1506578477579,469
1506578477587,477
1506578477595,479
1506578477604,482
1506578477612,488
1506578477620,490
1506578477629,495
1506578477637,498
1506578477645,501
1506578477653,506
1506578477661,506
1506578477669,511
1506578477678,509
1506578477686,509
1506578477694,511
1506578477698,508
1506578477706,510
1506578477714,505
1506578477723,501
1506578477732,499
1506578477740,493
1506578477748,492
1506578477756,486
1506578477764,482
1506578477772,482
1506578477781,475
1506578477789,475
1506578477797,471
1506578477805,468
1506578477813,469
1506578477822,465
1506578477830,467
1506578477838,466
1506578477846,466
1506578477854,469
1506578477858,466
1506578477867,471
1506578477875,471
1506578477883,472
1506578477891,476
1506578477900,474
1506578477908,477
1506578477916,479
1506578477924,478
1506578477932,482
1506578477940,481
1506578477948,484
1506578477957,483
1506578477965,483
1506578477973,486
1506578477981,482
1506578477989,487
1506578477998,486
1506578478006,484
1506578478014,487
1506578478018,484
1506578478026,485
1506578478034,485
1506578478043,485
1506578478051,487
1506578478059,483
1506578478067,485
1506578478075,484
1506578478084,482
1506578478092,483
1506578478100,479
1506578478108,481
1506578478116,479
1506578478124,476
1506578478133,479
1506578478141,477
1506578478149,483
1506578478157,487
1506578478165,495
1506578478173,508
1506578478178,518
1506578478186,538
1506578478194,555
1506578478202,572
1506578478210,594
1506578478219,609
1506578478227,625
1506578478235,637
1506578478243,645
1506578478251,652
1506578478260,649
1506578478268,648
1506578478276,640
1506578478284,628
1506578478292,618
1506578478301,599
1506578478309,583
1506578478317,565
1506578478325,545
1506578478333,530
1506578478337,509
1506578478346,494
1506578478354,480
1506578478362,467
1506578478370,462
1506578478378,452
1506578478386,450
1506578478395,447
1506578478403,444
1506578478411,448
1506578478419,447
1506578478427,450
1506578478436,453
1506578478444,455
1506578478452,461
1506578478460,462
1506578478468,470
1506578478477,474
1506578478485,478
1506578478493,487
1506578478497,489
1506578478505,495
1506578478513,502
1506578478522,503
1506578478530,510
1506578478538,510
1506578478547,514
1506578478555,515
1506578478563,513
1506578478571,515
1506578478579,510
1506578478588,509
1506578478596,506
1506578478604,500
1506578478612,499
1506578478620,492
1506578478628,488
1506578478637,485
1506578478645,478
1506578478653,477
1506578478661,470
1506578478665,470
1506578478673,468
1506578478682,464
1506578478690,466
1506578478698,464
1506578478706,464
1506578478714,465
1506578478723,464
1506578478731,468
1506578478739,467
1506578478747,470
1506578478755,473
1506578478764,473
1506578478772,478
1506578478780,477
1506578478788,480
1506578478796,483
1506578478804,481
1506578478813,487
1506578478821,487
1506578478825,489
1506578478833,492
1506578478841,490
1506578478849,494
1506578478858,492
1506578478866,494
1506578478874,496
1506578478882,492
1506578478890,496
1506578478899,493
1506578478907,493
1506578478915,495
1506578478923,491
1506578478931,493
1506578478939,489
1506578478948,488
1506578478956,488
1506578478964,484
1506578478972,486
1506578478980,483
1506578478984,482
1506578478993,482
1506578479001,479
1506578479009,483
1506578479017,483
1506578479025,488
1506578479034,498
1506578479042,506
1506578479050,523
1506578479058,538
1506578479066,558
1506578479075,579
1506578479083,595
1506578479091,618
1506578479099,633
1506578479107,646
1506578479116,659
1506578479124,663
1506578479132,669
1506578479140,663
1506578479144,658
1506578479152,649
1506578479161,632
1506578479169,620
1506578479177,600
1506578479185,582
1506578479193,566
1506578479201,544
1506578479210,530
1506578479218,513
1506578479226,498
1506578479235,489
1506578479243,475
1506578479251,470
1506578479259,462
1506578479268,458
1506578479276,461
1506578479284,456
1506578479292,461
1506578479300,460
1506578479304,462
1506578479312,467
1506578479321,466
1506578479329,473
1506578479337,475
1506578479345,480
1506578479353,485
1506578479362,486
1506578479370,493
1506578479378,495
1506578479386,499
1506578479394,504
1506578479403,503
1506578479411,508
1506578479419,508
1506578479427,509
1506578479435,512
1506578479444,510
1506578479452,512
1506578479460,509
1506578479464,507
1506578479472,506
1506578479480,501
1506578479488,499
1506578479497,494
1506578479505,491
1506578479513,490
1506578479521,483
1506578479529,483
1506578479538,480
1506578479546,476
1506578479554,476
1506578479562,471
1506578479570,473
1506578479579,470
1506578479587,470
1506578479595,473
1506578479603,469
1506578479611,473
1506578479619,473
1506578479623,474
1506578479632,478
1506578479640,478
1506578479648,482
1506578479656,482
1506578479665,483
1506578479673,487
1506578479681,485
1506578479689,488
1506578479697,488
1506578479705,489
1506578479714,492
1506578479722,489
1506578479730,492
1506578479738,491
1506578479746,491
1506578479754,493
1506578479763,490
1506578479771,492
1506578479779,490
1506578479783,489
1506578479791,490
1506578479799,487
1506578479808,489
1506578479816,488
1506578479824,485
1506578479832,489
1506578479840,485
1506578479849,487
1506578479857,487
1506578479865,485
1506578479873,488
1506578479881,484
1506578479890,487
1506578479898,486
1506578479906,484
1506578479914,486
1506578479923,483
1506578479931,484
1506578479939,483
1506578479943,483
1506578479951,489
1506578479959,489
1506578479967,498
1506578479975,507
1506578479984,517
1506578479992,535
1506578480000,549
1506578480008,570
1506578480017,590
1506578480025,609
1506578480033,630
1506578480041,643
1506578480049,659
1506578480057,669
1506578480065,672
1506578480074,676
1506578480082,668
1506578480090,662
1506578480098,650
1506578480102,633
1506578480110,618
1506578480119,596
1506578480127,580
1506578480135,560
1506578480143,541
1506578480152,528
1506578480160,509
1506578480168,498
1506578480176,488
1506578480184,477
1506578480193,475
1506578480201,468
1506578480209,468
1506578480218,467
1506578480226,467
1506578480234,471
1506578480242,470
1506578480250,474
1506578480258,476
1506578480263,475
1506578480271,482
1506578480279,480
1506578480287,485
1506578480295,489
1506578480303,489
1506578480312,495
1506578480320,495
1506578480328,499
1506578480336,501
1506578480344,502
1506578480353,507
1506578480361,506
1506578480369,509
1506578480377,510
1506578480385,508
1506578480394,511
1506578480402,508
1506578480410,507
1506578480418,505
1506578480426,502
1506578480430,501
1506578480439,495
1506578480447,494
1506578480455,490
1506578480463,485
1506578480471,484
1506578480479,478
1506578480488,477
1506578480496,476
1506578480504,471
1506578480512,474
1506578480520,470
1506578480529,472
1506578480537,471
1506578480545,469
1506578480553,474
1506578480561,472
1506578480569,475
1506578480578,479
1506578480586,477
1506578480590,483
1506578480599,483
1506578480607,485
1506578480615,487
1506578480623,486
1506578480631,491
1506578480640,489
1506578480648,491
1506578480656,493
1506578480664,490
1506578480672,495
1506578480680,493
1506578480689,494
1506578480697,496
1506578480705,493
1506578480713,495
1506578480721,492
1506578480730,492
1506578480738,491
1506578480746,488
1506578480750,491
1506578480758,488
1506578480766,488
1506578480775,488
1506578480783,484
1506578480791,486
1506578480799,482
1506578480807,483
1506578480815,483
1506578480824,480
1506578480832,483
1506578480840,480
1506578480848,481
1506578480856,482
1506578480865,478
1506578480873,482
1506578480881,477
1506578480889,478
1506578480897,478
1506578480905,475
1506578480910,477
1506578480918,476
1506578480926,479
1506578480934,486
1506578480942,491
1506578480951,504
1506578480959,515
1506578480967,531
1506578480975,552
1506578480983,568
1506578480991,590
1506578481000,608
1506578481008,625
1506578481016,641
1506578481024,651
1506578481032,662
1506578481041,661
1506578481049,661
1506578481057,657
1506578481065,644
1506578481069,635
1506578481078,618
1506578481086,601
1506578481094,585
1506578481102,563
1506578481110,548
1506578481118,527
1506578481127,512
1506578481135,499
1506578481143,486
1506578481151,479
1506578481159,468
1506578481168,462
1506578481176,461
1506578481184,456
1506578481192,460
1506578481200,461
1506578481208,461
1506578481217,465
1506578481225,464
1506578481229,470
1506578481237,471
1506578481245,474
1506578481253,479
1506578481262,479
1506578481270,486
1506578481278,486
1506578481286,489
1506578481295,495
1506578481303,495
1506578481311,500
1506578481319,502
1506578481328,504
1506578481336,507
1506578481344,506
1506578481352,510
1506578481360,508
1506578481369,506
1506578481377,507
1506578481385,501
1506578481389,501
1506578481397,496
1506578481405,493
1506578481414,491
1506578481422,485
1506578481430,484
1506578481438,479
1506578481446,476
1506578481455,475
1506578481463,469
1506578481471,470
1506578481479,467
1506578481487,465
1506578481495,467
1506578481504,464
1506578481512,467
1506578481520,466
1506578481528,467
1506578481536,471
1506578481544,471
1506578481549,476
1506578481557,477
1506578481565,478
1506578481573,483
1506578481581,481
1506578481590,485
1506578481598,485
1506578481606,485
1506578481614,487
1506578481622,484
1506578481630,487
1506578481639,485
1506578481647,485
1506578481655,487
1506578481663,483
1506578481671,486
1506578481680,484
1506578481688,483
1506578481696,486
1506578481704,481
1506578481708,483
1506578481716,483
1506578481725,481
1506578481733,483
1506578481741,479
1506578481749,482
1506578481757,480
1506578481766,478
1506578481774,480
1506578481782,475
1506578481790,477
1506578481798,476
1506578481806,475
1506578481815,480
1506578481823,480
1506578481831,489
1506578481839,497
1506578481847,507
1506578481856,525
1506578481864,539
1506578481872,560
1506578481876,579
1506578481884,596
1506578481892,616
1506578481901,629
1506578481909,643
1506578481917,651
1506578481925,652
1506578481933,655
1506578481942,647
1506578481950,641
1506578481958,628
1506578481966,612
1506578481974,599
1506578481982,577
1506578481991,560
1506578481999,541
1506578482007,521
1506578482016,507
1506578482024,489
1506578482032,478
1506578482036,467
1506578482044,457
1506578482053,454
1506578482061,448
1506578482069,450
1506578482077,449
1506578482085,447
1506578482094,452
1506578482102,450
1506578482110,454
1506578482118,458
1506578482126,459
1506578482134,465
1506578482143,467
1506578482151,474
1506578482159,479
1506578482167,481
1506578482175,490
1506578482184,492
1506578482192,499
1506578482196,504
1506578482204,505
1506578482212,512
1506578482220,510
1506578482229,514
1506578482237,514
1506578482245,512
1506578482253,513
1506578482261,509
1506578482269,507
1506578482278,504
1506578482286,497
1506578482294,496
1506578482302,489
1506578482310,486
1506578482319,482
1506578482327,476
1506578482335,476
1506578482343,470
1506578482351,470
1506578482355,469
1506578482364,465
1506578482372,468
1506578482380,465
1506578482388,467
1506578482396,469
1506578482404,467
1506578482413,473
1506578482421,471
1506578482429,474
1506578482437,477
1506578482445,476
1506578482454,482
1506578482462,480
1506578482470,484
1506578482478,486
1506578482486,484
1506578482495,489
1506578482503,488
1506578482511,489
1506578482515,492
1506578482523,490
1506578482531,493
1506578482540,490
1506578482548,492
1506578482556,492
1506578482564,489
1506578482572,493
1506578482580,491
1506578482589,491
1506578482597,493
1506578482605,489
1506578482613,492
1506578482621,490
1506578482630,489
1506578482638,489
1506578482646,485
1506578482654,487
1506578482663,483
1506578482671,482
1506578482675,481
1506578482683,477
1506578482692,480
1506578482700,477
1506578482708,479
1506578482716,482
1506578482725,484
1506578482733,495
1506578482741,503
1506578482749,518
1506578482757,536
1506578482765,552
1506578482773,576
1506578482782,595
1506578482790,614
1506578482798,635
1506578482806,647
1506578482814,661
1506578482822,667
1506578482831,670
1506578482835,670
1506578482843,660
1506578482851,653
1506578482860,638
1506578482867,622
1506578482876,606
1506578482884,584
1506578482892,568
1506578482900,547
1506578482908,529
1506578482917,514
1506578482925,497
1506578482933,488
1506578482941,477
1506578482949,470
1506578482958,466
1506578482966,460
1506578482974,463
1506578482982,460
1506578482990,461
1506578482994,464
1506578483003,463
1506578483011,468
1506578483019,468
1506578483027,470
1506578483035,475
1506578483044,474
1506578483052,480
1506578483060,482
1506578483068,485
1506578483076,490
1506578483085,490
1506578483093,497
1506578483101,497
1506578483109,500
1506578483117,505
1506578483125,504
1506578483134,508
1506578483142,508
1506578483150,508
1506578483154,509
1506578483162,505
1506578483170,506
1506578483179,501
1506578483187,499
1506578483195,497
1506578483203,491
1506578483211,490
1506578483219,485
1506578483228,481
1506578483236,480
1506578483244,475
1506578483252,476
1506578483261,473
1506578483269,471
1506578483277,473
1506578483285,469
1506578483293,472
1506578483301,472
1506578483309,472
1506578483314,475
1506578483322,474
1506578483330,477
1506578483338,477
1506578483346,478
1506578483355,482
1506578483363,481
1506578483371,485
1506578483380,486
1506578483388,485
1506578483396,490
1506578483404,488
1506578483412,492
1506578483421,492
1506578483429,491
1506578483437,493
1506578483445,490
1506578483453,493
1506578483461,492
1506578483470,491
1506578483478,493
1506578483482,489
1506578483490,492
1506578483498,490
1506578483506,488
1506578483515,490
1506578483523,486
1506578483531,488
1506578483539,486
1506578483547,485
1506578483556,487
1506578483564,483
1506578483572,486
1506578483580,486
1506578483588,485
1506578483597,489
1506578483605,484
1506578483613,487
1506578483621,486
1506578483629,485
1506578483637,487
1506578483642,483
1506578483650,486
1506578483658,485
1506578483666,483
1506578483674,487
1506578483683,486
1506578483691,493
1506578483699,499
1506578483707,508
1506578483715,524
1506578483723,537
1506578483732,558
1506578483740,578
1506578483748,596
1506578483756,620
1506578483764,634
1506578483773,652
1506578483781,664
1506578483789,671
1506578483797,676
1506578483801,673
1506578483809,670
1506578483818,660
1506578483826,645
1506578483834,632
1506578483842,610
1506578483850,593
1506578483858,574
1506578483867,553
1506578483875,538
1506578483883,517
1506578483891,503
1506578483900,490
1506578483908,479
1506578483916,474
1506578483924,465
1506578483932,465
1506578483940,463
1506578483949,460
1506578483957,466
1506578483961,465
1506578483969,469
1506578483977,472
1506578483985,473
1506578483994,478
1506578484002,478
1506578484010,482
1506578484019,486
1506578484027,486
1506578484035,493
1506578484043,492
1506578484051,497
1506578484060,500
1506578484068,501
1506578484076,506
1506578484084,506
1506578484092,510
1506578484100,511
1506578484109,509
1506578484117,512
1506578484121,508
1506578484129,508
1506578484137,507
1506578484145,502
1506578484154,502
1506578484162,497
1506578484170,495
1506578484178,492
1506578484186,487
1506578484195,487
1506578484203,480
1506578484211,480
1506578484219,476
1506578484227,472
1506578484235,473
1506578484244,468
1506578484252,469
1506578484260,469
1506578484268,466
1506578484276,471
1506578484280,469
1506578484289,471
1506578484297,473
1506578484305,472
1506578484313,477
1506578484321,475
1506578484330,479
1506578484338,481
1506578484346,480
1506578484354,485
1506578484362,483
1506578484371,485
1506578484379,487
1506578484387,485
1506578484395,489
1506578484403,487
1506578484411,489
1506578484420,489
1506578484428,487
1506578484436,490
1506578484440,488
1506578484448,488
1506578484456,490
1506578484465,486
1506578484473,490
1506578484481,486
1506578484489,486
1506578484498,487
1506578484506,484
1506578484514,486
1506578484522,483
1506578484530,484
1506578484538,485
1506578484546,482
1506578484555,486
1506578484563,482
1506578484571,482
1506578484579,485
1506578484587,481
1506578484596,482
1506578484600,480
1506578484608,481
1506578484616,481
1506578484624,477
1506578484632,480
1506578484641,477
1506578484649,479
1506578484657,483
1506578484665,485
1506578484673,496
1506578484682,506
1506578484690,520
1506578484698,539
1506578484706,555
1506578484715,578
1506578484723,595
1506578484731,614
1506578484739,633
1506578484747,644
1506578484756,658
1506578484760,662
1506578484768,664
1506578484776,662
1506578484784,653
1506578484793,645
1506578484801,630
1506578484809,613
1506578484817,597
1506578484825,575
1506578484834,559
1506578484842,539
1506578484850,521
1506578484858,509
1506578484866,491
1506578484874,482
1506578484883,470
1506578484891,463
1506578484899,460
1506578484907,454
1506578484915,456
1506578484923,454
1506578484928,455
1506578484936,459
1506578484944,457
1506578484952,463
1506578484960,464
1506578484969,467
1506578484977,473
1506578484985,474
1506578484993,480
1506578485001,483
1506578485009,487
1506578485018,493
1506578485026,493
1506578485034,501
1506578485042,503
1506578485050,506
1506578485059,510
1506578485067,508
1506578485075,511
1506578485083,510
1506578485087,510
1506578485095,509
1506578485104,504
1506578485112,503
1506578485120,498
1506578485128,494
1506578485136,492
1506578485145,484
1506578485153,482
1506578485161,478
1506578485169,473
1506578485177,472
1506578485185,466
1506578485194,467
1506578485202,464
1506578485210,463
1506578485218,465
1506578485226,461
1506578485235,466
1506578485243,465
1506578485247,464
1506578485255,468
1506578485263,466
1506578485271,469
1506578485280,471
1506578485288,472
1506578485296,477
1506578485304,476
1506578485312,481
1506578485321,481
1506578485329,481
1506578485337,485
1506578485345,481
1506578485353,485
1506578485362,485
1506578485370,484
1506578485378,487
1506578485386,482
1506578485394,485
1506578485402,485
1506578485407,484
1506578485415,486
1506578485423,483
1506578485432,486
1506578485440,485
1506578485448,484
1506578485456,486
1506578485464,482
1506578485472,484
1506578485481,483
1506578485489,481
1506578485497,483
1506578485505,479
1506578485513,480
1506578485522,478
1506578485530,476
1506578485538,479
1506578485546,475
1506578485554,479
1506578485562,483
1506578485567,488
1506578485575,500
1506578485583,510
1506578485591,526
1506578485600,544
1506578485608,562
1506578485616,584
1506578485624,600
1506578485632,621
1506578485640,636
1506578485648,646
1506578485657,656
1506578485665,657
1506578485673,658
1506578485681,653
1506578485689,642
1506578485698,633
1506578485706,616
1506578485714,602
1506578485722,583
1506578485726,562
1506578485734,547
1506578485743,527
1506578485751,512
1506578485759,498
1506578485767,483
1506578485775,477
1506578485784,465
1506578485792,462
1506578485800,458
1506578485808,454
1506578485816,457
1506578485824,453
1506578485833,457
1506578485841,459
1506578485849,459
1506578485857,466
1506578485865,466
1506578485874,472
1506578485882,477
1506578485886,479
1506578485894,486
1506578485902,488
1506578485910,494
1506578485919,499
1506578485927,501
1506578485935,507
1506578485943,507
1506578485952,511
1506578485960,512
1506578485968,511
1506578485976,514
1506578485984,511
1506578485992,511
1506578486000,509
1506578486009,504
1506578486017,505
1506578486025,497
1506578486033,497
1506578486041,493
1506578486045,486
1506578486054,487
1506578486062,480
1506578486070,478
1506578486078,477
1506578486086,471
1506578486095,473
1506578486103,468
1506578486111,469
1506578486119,469
1506578486128,466
1506578486136,470
1506578486144,467
1506578486152,469
1506578486161,473
1506578486169,471
1506578486177,477
1506578486185,476
1506578486193,479
1506578486201,482
1506578486206,482
1506578486214,487
1506578486222,485
1506578486230,487
1506578486238,490
1506578486247,488
1506578486255,492
1506578486263,490
1506578486271,491
1506578486279,493
1506578486287,490
1506578486296,493
1506578486304,491
1506578486312,492
1506578486320,492
1506578486328,488
1506578486337,490
1506578486345,487
1506578486353,488
1506578486361,488
1506578486365,485
1506578486373,487
1506578486382,485
1506578486390,485
1506578486398,485
1506578486406,482
1506578486414,484
1506578486423,481
1506578486431,482
1506578486439,483
1506578486447,479
1506578486455,482
1506578486464,479
1506578486472,479
1506578486480,481
1506578486488,479
1506578486496,485
1506578486505,487
1506578486513,496
1506578486521,507
1506578486525,518
1506578486533,538
1506578486541,554
1506578486549,574
1506578486558,597
1506578486566,615
1506578486574,636
1506578486582,651
1506578486590,663
1506578486599,674
1506578486607,674
1506578486615,676
1506578486623,668
1506578486631,659
1506578486640,649
1506578486648,629
1506578486656,615
1506578486664,594
1506578486672,575
1506578486680,557
1506578486689,537
1506578486693,524
1506578486701,507
1506578486709,494
1506578486717,485
1506578486725,473
1506578486734,470
1506578486742,465
1506578486750,463
1506578486758,466
1506578486766,463
1506578486775,467
1506578486783,467
1506578486791,470
1506578486799,475
1506578486808,476
1506578486816,481
1506578486824,483
1506578486833,487
1506578486840,492
1506578486849,492
1506578486853,499
1506578486861,501
1506578486869,504
1506578486878,509
1506578486886,507
1506578486894,513
1506578486902,513
1506578486910,514
1506578486918,517
1506578486927,514
1506578486935,516
1506578486943,513
1506578486951,511
1506578486959,511
1506578486967,503
1506578486976,503
1506578486984,498
1506578486992,494
1506578487000,492
1506578487008,486
1506578487012,486
1506578487021,482
1506578487029,478
1506578487037,478
1506578487045,472
1506578487053,474
1506578487062,472
1506578487070,470
1506578487078,472
1506578487086,469
1506578487094,473
1506578487103,471
1506578487111,472
1506578487119,476
1506578487127,474
1506578487135,479
1506578487143,480
1506578487152,481
1506578487160,486
1506578487168,484
1506578487172,488
1506578487180,489
1506578487188,489
1506578487197,492
1506578487205,490
1506578487213,494
1506578487221,493
1506578487229,493
1506578487238,496
1506578487246,492
1506578487254,494
1506578487262,493
1506578487270,491
1506578487278,495
1506578487287,491
1506578487295,493
1506578487303,491
1506578487311,490
1506578487319,492
1506578487327,488
1506578487332,490
1506578487340,489
1506578487348,487
1506578487356,490
1506578487364,487
1506578487373,489
1506578487381,489
1506578487389,487
1506578487397,491
1506578487405,487
1506578487413,489
1506578487422,489
1506578487430,486
1506578487438,489
1506578487446,487
1506578487454,488
1506578487463,488
1506578487471,487
1506578487479,489
1506578487487,487
1506578487491,491
1506578487499,494
1506578487508,498
1506578487516,510
1506578487524,519
1506578487533,536
1506578487541,554
1506578487549,571
1506578487557,594
1506578487565,609
1506578487574,630
1506578487582,646
1506578487590,657
1506578487598,669
1506578487606,671
1506578487615,673
1506578487623,670
1506578487631,660
1506578487639,652
1506578487647,634
1506578487651,621
1506578487660,603
1506578487668,583
1506578487676,568
1506578487684,546
1506578487692,531
1506578487701,516
1506578487709,500
1506578487717,491
1506578487725,478
1506578487733,472
1506578487741,467
1506578487750,463
1506578487758,464
1506578487766,460
1506578487774,463
1506578487782,465
1506578487791,464
1506578487799,471
1506578487807,470
1506578487811,473
1506578487819,477
1506578487827,477
1506578487836,484
1506578487844,483
1506578487852,488
1506578487860,492
1506578487868,493
1506578487876,499
1506578487885,499
1506578487893,502
1506578487901,505
1506578487909,504
1506578487917,509
1506578487926,506
1506578487934,507
1506578487942,508
1506578487950,505
1506578487958,508
1506578487966,502
1506578487971,500
1506578487979,497
1506578487987,490
1506578487995,491
1506578488003,484
1506578488011,481
1506578488020,479
1506578488028,474
1506578488036,474
1506578488044,470
1506578488052,469
1506578488061,470
1506578488069,466
1506578488077,469
1506578488085,466
1506578488093,468
1506578488102,471
1506578488110,469
1506578488118,474
1506578488126,473
1506578488134,477
1506578488138,480
1506578488147,480
1506578488155,486
1506578488163,486
1506578488171,489
1506578488179,491
1506578488187,489
1506578488196,493
1506578488204,491
1506578488213,494
1506578488221,495
1506578488229,491
1506578488237,495
1506578488245,491
1506578488254,492
1506578488262,492
1506578488270,489
1506578488278,492
1506578488286,487
1506578488294,488
1506578488299,488
1506578488307,485
1506578488315,487
1506578488323,484
1506578488331,484
1506578488339,486
1506578488348,482
1506578488356,485
1506578488364,483
1506578488372,483
1506578488380,484
1506578488388,481
1506578488397,484
1506578488405,482
1506578488413,482
1506578488421,483
1506578488429,479
1506578488438,481
1506578488446,479
1506578488454,479
1506578488458,480
1506578488467,477
1506578488475,481
1506578488483,480
1506578488491,485
1506578488499,492
1506578488507,498
1506578488515,513
1506578488524,526
1506578488532,545
1506578488540,566
1506578488548,581
1506578488556,604
1506578488565,619
1506578488573,633
1506578488581,647
1506578488589,652
1506578488597,659
1506578488605,657
1506578488614,652
1506578488618,646
1506578488626,631
1506578488634,619
1506578488643,601
1506578488651,583
1506578488659,567
1506578488667,546
1506578488675,531
1506578488683,512
1506578488691,497
1506578488700,486
1506578488708,470
1506578488716,466
1506578488724,458
1506578488732,453
1506578488740,454
1506578488749,450
1506578488757,454
1506578488765,453
1506578488773,455
1506578488778,459
1506578488786,458
1506578488794,464
1506578488802,466
1506578488810,470
1506578488819,476
1506578488827,478
1506578488835,485
1506578488843,489
1506578488852,494
1506578488860,500
1506578488868,501
1506578488876,507
1506578488884,510
1506578488892,511
1506578488901,516
1506578488909,512
1506578488917,515
1506578488925,513
1506578488933,511
1506578488938,512
1506578488946,505
1506578488954,504
1506578488962,500
1506578488970,496
1506578488978,493
1506578488987,485
1506578488995,485
1506578489003,479
1506578489011,475
1506578489019,474
1506578489028,467
1506578489036,469
1506578489044,466
1506578489052,464
1506578489060,467
1506578489068,464
1506578489077,467
1506578489085,467
1506578489093,469
1506578489097,472
1506578489105,470
1506578489113,476
1506578489122,476
1506578489130,477
1506578489138,483
1506578489146,480
1506578489154,485
1506578489163,485
1506578489171,485
1506578489179,489
1506578489187,487
1506578489195,491
1506578489204,491
1506578489212,490
1506578489220,495
1506578489228,490
1506578489236,493
1506578489244,494
1506578489253,492
1506578489257,496
1506578489265,493
1506578489273,497
1506578489281,495
1506578489290,492
1506578489298,494
1506578489306,490
1506578489314,491
1506578489322,489
1506578489330,486
1506578489339,488
1506578489347,483
1506578489355,483
1506578489363,482
1506578489372,479
1506578489380,481
1506578489388,478
1506578489396,480
1506578489404,480
1506578489412,483
1506578489417,492
1506578489425,496
1506578489433,510
1506578489441,524
1506578489449,540
1506578489458,561
1506578489465,577
1506578489474,599
1506578489482,618
1506578489491,633
1506578489499,648
1506578489507,654
1506578489515,663
1506578489523,664
1506578489531,659
1506578489540,656
1506578489548,641
1506578489556,630
1506578489564,614
1506578489572,596
1506578489577,581
1506578489585,560
1506578489593,544
1506578489601,527
1506578489609,510
1506578489618,500
1506578489626,484
1506578489634,478
1506578489642,470
1506578489650,463
1506578489658,464
1506578489667,460
1506578489675,461
1506578489683,462
1506578489691,463
1506578489699,467
1506578489707,466
1506578489716,470
1506578489724,473
1506578489732,474
1506578489736,480
1506578489744,480
1506578489752,485
1506578489761,488
1506578489769,490
1506578489777,496
1506578489785,497
1506578489793,502
1506578489802,505
1506578489810,505
1506578489818,510
1506578489826,508
1506578489834,511
1506578489842,511
1506578489851,508
1506578489859,509
1506578489867,503
1506578489875,502
1506578489883,500
1506578489892,494
1506578489900,494
1506578489904,486
1506578489912,484
1506578489920,482
1506578489928,476
1506578489937,477
1506578489945,472
1506578489953,471
1506578489961,472
1506578489969,468
1506578489978,472
1506578489986,470
1506578489994,472
1506578490002,474
1506578490010,473
1506578490019,478
1506578490027,477
1506578490035,480
1506578490043,482
1506578490051,481
1506578490059,486
1506578490063,486
1506578490072,488
1506578490080,490
1506578490088,490
1506578490096,494
1506578490104,491
1506578490113,494
1506578490121,495
1506578490129,492
1506578490137,497
1506578490145,493
1506578490154,493
1506578490162,495
1506578490170,491
1506578490178,495
1506578490186,492
1506578490195,492
1506578490203,492
1506578490211,490
1506578490219,493
1506578490224,489
1506578490232,490
1506578490240,491
1506578490248,486
1506578490256,490
1506578490265,488
1506578490273,488
1506578490281,488
1506578490289,486
1506578490298,489
1506578490306,486
1506578490314,486
1506578490322,488
1506578490330,484
1506578490338,487
1506578490346,485
1506578490355,484
1506578490363,486
1506578490371,483
1506578490379,487
1506578490383,485
1506578490392,489
1506578490400,496
1506578490408,501
1506578490416,515
1506578490424,526
1506578490432,543
1506578490441,564
1506578490449,579
1506578490457,603
1506578490465,619
1506578490473,636
1506578490481,653
1506578490490,661
1506578490498,671
1506578490506,672
1506578490514,671
1506578490522,668
1506578490531,654
1506578490539,646
1506578490543,628
1506578490551,611
1506578490559,595
1506578490567,572
1506578490576,556
1506578490584,536
1506578490592,521
1506578490600,508
1506578490608,492
1506578490616,484
1506578490625,475
1506578490633,468
1506578490641,467
1506578490649,462
1506578490658,466
1506578490666,465
1506578490674,467
1506578490682,471
1506578490690,475
1506578490699,480
1506578490702,481
1506578490711,484
1506578490719,487
1506578490727,486
1506578490735,492
1506578490743,493
1506578490752,495
1506578490760,501
1506578490768,499
1506578490776,505
1506578490784,506
1506578490793,507
1506578490801,511
1506578490809,508
1506578490817,512
1506578490825,511
1506578490833,510
1506578490842,512
1506578490850,507
1506578490858,507
1506578490862,503
1506578490870,499
1506578490879,499
1506578490887,492
1506578490895,492
1506578490904,487
1506578490912,484
1506578490920,483
1506578490928,477
1506578490936,480
1506578490944,477
1506578490953,474
1506578490961,476
1506578490969,471
1506578490977,474
1506578490985,473
1506578490994,474
1506578491002,477
1506578491010,474
1506578491018,478
1506578491022,478
1506578491030,479
1506578491039,484
1506578491047,481
1506578491055,486
1506578491063,487
1506578491071,487
1506578491080,491
1506578491088,489
1506578491096,494
1506578491104,494
1506578491112,493
1506578491120,496
1506578491129,493
1506578491137,495
1506578491145,493
1506578491153,493
1506578491161,495
1506578491170,491
1506578491178,493
1506578491182,491
1506578491190,489
1506578491198,492
1506578491207,488
1506578491215,490
1506578491223,490
1506578491231,488
1506578491239,491
1506578491247,487
1506578491256,489
1506578491264,488
1506578491272,488
1506578491280,490
1506578491288,485
1506578491296,487
1506578491305,485
1506578491313,483
1506578491321,486
1506578491329,482
1506578491338,484
1506578491341,482
1506578491350,481
1506578491358,484
1506578491366,481
1506578491374,485
1506578491382,489
1506578491391,493
1506578491399,505
1506578491407,514
1506578491415,532
1506578491423,548
1506578491431,565
1506578491440,588
1506578491448,604
1506578491456,624
1506578491464,639
1506578491472,650
1506578491480,661
1506578491488,661
1506578491497,664
1506578491505,660
1506578491509,649
1506578491517,641
1506578491525,624
1506578491534,609
1506578491542,592
1506578491550,571
1506578491559,556
1506578491567,535
1506578491575,521
1506578491583,507
1506578491592,492
1506578491600,485
1506578491608,473
1506578491616,468
1506578491624,465
1506578491632,460
1506578491641,462
1506578491649,460
1506578491657,463
1506578491665,464
1506578491669,464
1506578491678,470
1506578491686,469
1506578491694,472
1506578491702,476
1506578491710,477
1506578491719,484
1506578491727,483
1506578491735,488
1506578491743,491
1506578491751,494
1506578491759,500
1506578491768,499
1506578491776,504
1506578491784,507
1506578491792,506
1506578491800,511
1506578491808,508
1506578491817,510
1506578491825,510
1506578491829,506
1506578491837,507
1506578491845,501
1506578491854,500
1506578491862,497
1506578491870,490
1506578491879,491
1506578491886,483
1506578491895,481
1506578491903,479
1506578491911,474
1506578491919,476
1506578491927,473
1506578491935,472
1506578491944,472
1506578491952,469
1506578491960,472
1506578491968,470
1506578491976,472
1506578491984,474
1506578491989,472
1506578491997,477
1506578492005,476
1506578492013,479
1506578492021,481
1506578492030,480
1506578492038,484
1506578492046,483
1506578492054,486
1506578492062,488
1506578492070,486
1506578492079,490
1506578492087,489
1506578492095,491
1506578492103,492
1506578492111,490
1506578492120,494
1506578492128,491
1506578492136,492
1506578492144,493
1506578492148,490
1506578492157,493
1506578492165,489
1506578492173,489
1506578492181,490
1506578492190,486
1506578492198,490
1506578492206,486
1506578492214,486
1506578492222,487
1506578492231,482
1506578492239,485
1506578492246,481
1506578492255,481
1506578492263,481
1506578492271,477
1506578492279,481
1506578492287,477
1506578492295,478
1506578492304,481
1506578492308,481
1506578492316,490
1506578492325,495
1506578492333,506
1506578492341,521
1506578492349,534
1506578492357,555
1506578492366,570
1506578492374,590
1506578492382,609
1506578492390,621
1506578492399,638
1506578492406,645
1506578492415,651
1506578492423,654
1506578492431,648
1506578492439,644
1506578492448,632
1506578492456,619
1506578492464,606
1506578492468,586
1506578492476,573
1506578492484,552
1506578492492,535
1506578492501,520
1506578492509,502
1506578492517,492
1506578492525,478
1506578492534,469
1506578492542,464
1506578492550,454
1506578492558,454
1506578492566,452
1506578492574,451
1506578492582,453
1506578492591,451
1506578492599,457
1506578492607,458
1506578492615,460
1506578492623,466
1506578492627,467
1506578492636,475
1506578492644,479
1506578492652,486
1506578492660,493
1506578492668,494
1506578492677,502
1506578492685,503
1506578492693,507
1506578492701,512
1506578492709,512
1506578492718,516
1506578492726,515
1506578492734,515
1506578492742,517
1506578492750,512
1506578492758,512
1506578492767,507
1506578492775,502
1506578492783,500
1506578492787,492
1506578492796,489
1506578492804,484
1506578492812,478
1506578492820,477
1506578492828,470
1506578492837,469
1506578492845,465
1506578492853,463
1506578492861,464
1506578492870,459
1506578492878,463
1506578492886,462
1506578492894,463
1506578492902,467
1506578492910,465
1506578492919,470
1506578492927,471
1506578492935,473
1506578492943,477
1506578492951,476
1506578492955,481
1506578492964,481
1506578492972,483
1506578492980,488
1506578492988,485
1506578492996,491
1506578493005,490
1506578493013,490
1506578493021,494
1506578493029,490
1506578493037,493
1506578493045,493
1506578493054,492
1506578493062,494
1506578493070,490
1506578493079,493
1506578493086,490
1506578493095,489
1506578493103,491
1506578493111,487
1506578493115,488
1506578493123,487
1506578493131,484
1506578493140,486
1506578493148,481
1506578493156,483
1506578493164,482
1506578493172,482
1506578493181,487
1506578493189,487
1506578493197,497
1506578493205,505
1506578493213,516
1506578493221,535
1506578493230,549
1506578493238,570
1506578493246,589
1506578493254,606
1506578493262,626
1506578493270,638
1506578493275,653
1506578493283,660
1506578493291,662
1506578493299,665
1506578493307,656
1506578493316,650
1506578493324,638
1506578493332,622
1506578493340,609
1506578493348,589
1506578493357,572
1506578493365,554
1506578493373,535
1506578493381,522
1506578493389,504
1506578493397,494
1506578493406,483
1506578493414,472
1506578493422,470
1506578493430,462
1506578493434,462
1506578493442,460
1506578493451,458
1506578493459,463
1506578493467,461
1506578493475,465
1506578493483,467
1506578493492,467
1506578493500,473
1506578493508,472
1506578493516,478
1506578493524,480
1506578493532,481
1506578493541,488
1506578493549,488
1506578493557,494
1506578493565,497
1506578493573,500
1506578493582,506
1506578493590,505
1506578493594,509
1506578493602,510
1506578493610,508
1506578493618,512
1506578493627,507
1506578493635,507
1506578493643,505
1506578493652,500
1506578493660,500
1506578493668,493
1506578493676,492
1506578493684,487
1506578493693,481
1506578493701,482
1506578493709,475
1506578493717,475
1506578493725,472
1506578493734,468
1506578493742,470
1506578493750,467
1506578493754,469
1506578493762,470
1506578493770,469
1506578493779,474
1506578493787,472
1506578493795,476
1506578493803,479
1506578493811,477
1506578493820,483
1506578493828,481
1506578493836,485
1506578493844,488
1506578493852,487
1506578493860,492
1506578493869,492
1506578493877,493
1506578493885,495
1506578493893,493
1506578493901,497
1506578493909,494
1506578493914,495
1506578493922,497
1506578493930,499
1506578493938,503
1506578493946,495
1506578493955,494
1506578493963,493
1506578493971,488
1506578493979,492
1506578493987,487
1506578493995,488
1506578494004,487
1506578494012,483
1506578494020,487
1506578494028,482
1506578494036,483
1506578494045,484
1506578494053,480
1506578494061,483
1506578494069,479
1506578494073,480
1506578494082,480
1506578494090,477
1506578494098,481
1506578494106,478
1506578494114,479
1506578494122,482
1506578494131,482
1506578494139,490
1506578494147,496
1506578494155,506
1506578494163,520
1506578494172,534
1506578494180,555
1506578494188,572
1506578494197,593
1506578494205,613
1506578494213,629
1506578494221,649
1506578494229,659
1506578494233,669
1506578494242,675
1506578494250,673
1506578494258,672
1506578494266,662
1506578494274,653
1506578494282,638
1506578494291,619
1506578494299,605
1506578494307,583
1506578494315,566
1506578494323,549
1506578494332,529
1506578494340,517
1506578494348,502
1506578494356,492
1506578494364,485
1506578494372,476
1506578494381,476
1506578494389,471
1506578494393,471
1506578494401,473
1506578494409,470
1506578494418,477
1506578494426,475
1506578494434,478
1506578494442,482
1506578494450,481
1506578494459,487
1506578494467,487
1506578494475,490
1506578494483,495
1506578494491,494
1506578494499,500
1506578494508,500
1506578494516,503
1506578494524,508
1506578494532,506
1506578494540,512
1506578494548,511
1506578494556,511
1506578494561,514
1506578494569,510
1506578494577,513
1506578494585,509
1506578494594,508
1506578494602,507
1506578494610,501
1506578494618,502
1506578494626,496
1506578494634,492
1506578494643,491
1506578494651,485
1506578494659,485
1506578494667,481
1506578494675,478
1506578494684,478
1506578494692,474
1506578494700,476
1506578494708,474
1506578494716,473
1506578494720,476
1506578494729,472
1506578494737,476
1506578494745,475
1506578494753,476
1506578494761,480
1506578494770,479
1506578494778,485
1506578494786,485
1506578494794,486
1506578494802,490
1506578494811,488
1506578494819,492
1506578494827,493
1506578494835,492
1506578494843,495
1506578494851,492
1506578494860,496
1506578494868,494
1506578494876,495
1506578494881,498
1506578494889,494
1506578494897,496
1506578494905,494
1506578494913,492
1506578494921,494
1506578494929,489
1506578494938,491
1506578494946,488
1506578494954,487
1506578494962,489
1506578494970,484
1506578494979,487
1506578494987,485
1506578494995,484
1506578495003,487
1506578495011,484
1506578495020,487
1506578495028,486
1506578495036,486
1506578495040,489
1506578495048,486
1506578495056,488
1506578495065,486
1506578495073,484
1506578495081,488
1506578495089,483
1506578495098,485
1506578495106,484
1506578495114,483
1506578495122,486
1506578495130,486
1506578495139,494
1506578495147,503
1506578495155,514
1506578495163,532
1506578495171,545
1506578495179,567
1506578495187,586
1506578495196,605
1506578495200,627
1506578495208,641
1506578495216,657
1506578495224,666
1506578495232,671
1506578495241,676
1506578495249,670
1506578495257,665
1506578495265,654
1506578495274,639
1506578495282,626
1506578495290,605
1506578495298,590
1506578495306,570
1506578495314,550
1506578495323,536
1506578495331,516
1506578495339,504
1506578495347,492
1506578495355,480
1506578495359,477
1506578495368,468
1506578495376,468
1506578495384,466
1506578495392,463
1506578495400,468
1506578495409,466
1506578495417,471
1506578495425,473
1506578495433,473
1506578495441,478
1506578495449,476
1506578495458,480
1506578495466,482
1506578495474,482
1506578495482,489
1506578495491,487
1506578495499,492
1506578495507,496
1506578495515,495
1506578495519,500
1506578495527,500
1506578495535,504
1506578495543,505
1506578495551,504
1506578495560,507
1506578495569,503
1506578495577,504
1506578495585,502
1506578495593,497
1506578495601,497
1506578495610,491
1506578495618,490
1506578495626,487
1506578495634,482
1506578495642,481
1506578495650,475
1506578495659,475
1506578495667,473
1506578495675,470
1506578495679,471
1506578495687,466
1506578495695,468
1506578495704,469
1506578495712,467
1506578495720,473
1506578495728,470
1506578495736,472
1506578495745,473
1506578495753,473
1506578495761,478
1506578495769,476
1506578495777,480
1506578495786,484
1506578495794,483
1506578495802,487
1506578495810,486
1506578495819,489
1506578495826,492
1506578495835,490
1506578495839,494
1506578495847,492
1506578495855,495
1506578495863,495
1506578495871,492
1506578495880,496
1506578495888,492
1506578495896,492
1506578495904,493
1506578495912,490
1506578495921,492
1506578495929,488
1506578495937,489
1506578495945,489
1506578495953,486
1506578495962,488
1506578495970,483
1506578495978,484
1506578495986,484
1506578495994,480
1506578496002,484
1506578496006,479
1506578496015,480
1506578496023,480
1506578496031,477
1506578496039,480
1506578496047,476
1506578496056,477
1506578496064,478
1506578496072,476
1506578496080,484
1506578496088,487
1506578496097,497
1506578496105,510
1506578496113,522
1506578496121,543
1506578496129,558
1506578496138,578
1506578496146,598
1506578496154,614
1506578496162,633
1506578496166,643
1506578496174,653
1506578496183,660
1506578496191,657
1506578496199,657
1506578496207,647
1506578496215,636
1506578496223,625
1506578496232,606
1506578496240,591
1506578496248,570
1506578496256,552
1506578496264,534
1506578496273,514
1506578496281,502
1506578496289,486
1506578496297,475
1506578496305,467
1506578496313,457
1506578496322,456
1506578496326,451
1506578496334,450
1506578496343,451
1506578496351,449
1506578496359,454
1506578496367,454
1506578496375,457
1506578496383,461
1506578496392,462
1506578496400,469
1506578496408,471
1506578496416,476
1506578496424,483
1506578496432,485
1506578496440,492
1506578496449,495
1506578496457,500
1506578496465,506
1506578496473,506
1506578496482,513
1506578496486,512
1506578496494,514
1506578496502,516
1506578496510,512
1506578496518,513
1506578496526,510
1506578496534,508
1506578496543,505
1506578496551,498
1506578496559,496
1506578496567,489
1506578496575,485
1506578496584,482
1506578496592,475
1506578496601,474
1506578496609,470
1506578496617,467
1506578496625,467
1506578496633,464
1506578496641,466
1506578496645,464
1506578496654,464
1506578496662,467
1506578496670,466
1506578496678,471
1506578496686,471
1506578496695,472
1506578496703,477
1506578496711,475
1506578496719,480
1506578496727,481
1506578496736,483
1506578496744,485
1506578496752,482
1506578496760,488
1506578496768,486
1506578496776,487
1506578496785,491
1506578496793,488
1506578496801,492
1506578496805,491
1506578496813,490
1506578496821,492
1506578496830,490
1506578496838,493
1506578496846,492
1506578496854,491
1506578496862,492
1506578496871,488
1506578496879,491
1506578496887,490
1506578496896,487
1506578496904,488
1506578496912,484
1506578496920,486
1506578496928,485
1506578496937,484
1506578496945,485
1506578496953,480
1506578496961,484
1506578496965,483
1506578496973,485
1506578496982,494
1506578496990,499
1506578496998,513
1506578497006,526
1506578497014,541
1506578497022,562
1506578497031,579
1506578497039,602
1506578497047,619
1506578497055,634
1506578497063,650
1506578497072,656
1506578497080,665
1506578497088,666
1506578497096,661
1506578497104,657
1506578497113,644
1506578497121,633
1506578497125,617
1506578497133,598
1506578497141,584
1506578497149,562
1506578497158,547
1506578497166,528
1506578497174,511
1506578497182,500
1506578497190,483
1506578497199,476
1506578497207,468
1506578497215,462
1506578497223,462
1506578497231,458
1506578497240,462
1506578497248,462
1506578497256,462
1506578497264,466
1506578497272,465
1506578497280,470
1506578497284,471
1506578497293,473
1506578497301,478
1506578497309,479
1506578497317,485
1506578497326,489
1506578497334,492
1506578497342,499
1506578497350,499
1506578497358,504
1506578497366,507
1506578497375,507
1506578497383,512
1506578497391,510
1506578497399,513
1506578497407,512
1506578497415,509
1506578497424,511
1506578497432,505
1506578497440,504
1506578497444,501
1506578497452,495
1506578497460,494
1506578497469,487
1506578497477,485
1506578497485,482
1506578497493,476
1506578497501,478
1506578497510,472
1506578497518,472
1506578497526,470
1506578497534,469
1506578497542,471
1506578497551,469
1506578497559,472
1506578497567,473
1506578497576,472
1506578497584,476
1506578497592,473
1506578497600,476
1506578497608,478
1506578497612,477
1506578497621,482
1506578497629,481
1506578497637,484
1506578497645,485
1506578497653,486
1506578497662,490
1506578497670,486
1506578497678,490
1506578497686,490
1506578497694,488
1506578497702,491
1506578497711,488
1506578497719,490
1506578497727,491
1506578497735,488
1506578497743,491
1506578497752,487
1506578497760,490
1506578497768,490
1506578497772,488
1506578497780,491
1506578497788,487
1506578497797,488
1506578497805,488
1506578497813,486
1506578497821,489
1506578497829,486
1506578497838,486
1506578497846,486
1506578497854,484
1506578497862,486
1506578497870,483
1506578497878,483
1506578497887,484
1506578497895,480
1506578497903,484
1506578497911,480
1506578497919,482
1506578497927,484
1506578497932,483
1506578497940,492
1506578497948,497
1506578497956,510
1506578497964,524
1506578497973,538
1506578497981,560
1506578497989,577
1506578497997,598
1506578498005,619
1506578498013,634
1506578498022,653
1506578498030,662
1506578498038,671
1506578498046,676
1506578498055,672
1506578498063,671
1506578498071,659
1506578498079,648
1506578498087,633
1506578498091,613
1506578498099,598
1506578498108,577
1506578498116,558
1506578498124,539
1506578498132,520
1506578498140,508
1506578498149,491
1506578498157,481
1506578498165,474
1506578498173,465
1506578498181,465
1506578498189,461
1506578498198,461
1506578498206,464
1506578498214,463
1506578498222,468
1506578498230,469
1506578498239,472
1506578498247,476
1506578498251,476
1506578498260,483
1506578498268,482
1506578498276,485
1506578498284,490
1506578498292,490
1506578498300,496
1506578498309,496
1506578498317,500
1506578498325,504
1506578498333,503
1506578498341,508
1506578498349,507
1506578498358,508
1506578498366,510
1506578498374,507
1506578498382,509
1506578498391,505
1506578498399,504
1506578498407,503
1506578498411,497
1506578498419,497
1506578498427,493
1506578498435,489
1506578498444,487
1506578498452,480
1506578498460,479
1506578498468,474
1506578498476,471
1506578498485,471
1506578498493,466
1506578498501,468
1506578498509,465
1506578498517,465
1506578498525,468
1506578498534,465
1506578498542,470
1506578498550,469
1506578498558,470
1506578498566,474
1506578498570,474
1506578498579,478
1506578498587,478
1506578498595,480
1506578498603,484
1506578498611,482
1506578498620,487
1506578498628,486
1506578498636,488
1506578498644,491
1506578498652,488
1506578498661,492
1506578498669,492
1506578498677,491
1506578498685,493
1506578498693,489
1506578498701,493
1506578498710,490
1506578498718,490
1506578498726,491
1506578498730,486
1506578498739,489
1506578498747,486
1506578498755,484
1506578498763,486
1506578498771,481
1506578498779,483
1506578498787,481
1506578498796,480
1506578498804,482
1506578498812,477
1506578498820,479
1506578498828,477
1506578498837,476
1506578498845,477
1506578498853,473
1506578498862,476
1506578498870,476
1506578498878,474
1506578498886,477
1506578498890,475
1506578498899,480
1506578498907,482
1506578498915,488
1506578498923,499
1506578498931,508
1506578498939,526
1506578498948,542
1506578498956,559
1506578498964,582
1506578498972,599
1506578498980,621
1506578498989,637
1506578498997,649
1506578499005,662
1506578499013,663
1506578499021,667
1506578499029,662
1506578499038,653
1506578499046,645
1506578499050,627
1506578499058,613
1506578499066,596
1506578499074,576
1506578499083,560
1506578499091,538
1506578499099,523
1506578499107,506
1506578499115,491
1506578499124,481
1506578499132,467
1506578499140,462
1506578499148,456
1506578499156,453
1506578499165,454
1506578499173,451
1506578499181,454
1506578499189,454
1506578499197,455
1506578499205,460
1506578499213,459
1506578499218,465
1506578499226,468
1506578499234,471
1506578499242,478
1506578499250,478
1506578499259,486
1506578499267,490
1506578499275,495
1506578499283,501
1506578499291,503
1506578499300,509
1506578499308,511
1506578499316,512
1506578499324,516
1506578499332,514
1506578499341,515
1506578499349,512
1506578499357,508
1506578499365,509
1506578499373,502
1506578499378,499
1506578499386,495
1506578499394,489
1506578499402,487
1506578499410,480
1506578499418,478
1506578499426,474
1506578499435,469
1506578499443,470
1506578499451,465
1506578499459,466
1506578499467,465
1506578499475,462
1506578499484,465
1506578499492,463
1506578499500,465
1506578499508,466
1506578499517,466
1506578499525,470
1506578499533,469
1506578499537,473
1506578499545,475
1506578499554,474
1506578499562,479
1506578499570,478
1506578499579,481
1506578499587,483
1506578499595,483
1506578499603,487
1506578499611,484
1506578499619,487
1506578499627,488
1506578499636,487
1506578499644,490
1506578499652,487
1506578499660,488
1506578499668,490
1506578499677,486
1506578499685,488
1506578499693,485
1506578499697,486
1506578499705,486
1506578499713,482
1506578499722,485
1506578499730,482
1506578499738,483
1506578499746,483
1506578499754,479
1506578499763,482
1506578499771,478
1506578499779,479
1506578499787,481
1506578499795,481
1506578499803,491
1506578499812,496
1506578499820,509
1506578499828,524
1506578499836,541
1506578499844,564
1506578499852,580
1506578499857,601
1506578499865,618
1506578499873,629
1506578499881,645
1506578499889,652
1506578499898,657
1506578499906,658
1506578499914,651
1506578499922,647
1506578499930,633
1506578499939,620
1506578499947,605
1506578499955,584
1506578499963,570
1506578499971,548
1506578499979,531
1506578499988,514
1506578499996,497
1506578500004,487
1506578500012,473
1506578500016,465
1506578500025,460
1506578500033,453
1506578500041,455
1506578500049,450
1506578500057,451
1506578500065,453
1506578500074,452
1506578500082,458
1506578500090,458
1506578500098,461
1506578500106,466
1506578500114,467
1506578500123,475
1506578500131,477
1506578500139,483
1506578500147,489
1506578500155,490
1506578500164,498
1506578500172,499
1506578500176,504
1506578500184,509
1506578500192,508
1506578500200,513
1506578500209,513
1506578500217,513
1506578500225,514
1506578500233,508
1506578500242,507
1506578500250,502
1506578500258,499
1506578500266,497
1506578500274,490
1506578500282,489
1506578500290,482
1506578500299,478
1506578500307,476
1506578500315,470
1506578500323,470
1506578500331,465
1506578500336,464
1506578500344,464
1506578500353,460
1506578500361,463
1506578500369,462
1506578500377,462
1506578500385,465
1506578500393,464
1506578500401,469
1506578500410,469
1506578500418,474
1506578500426,478
1506578500434,476
1506578500442,481
1506578500451,481
1506578500459,483
1506578500467,487
1506578500475,485
1506578500483,490
1506578500492,489
1506578500496,489
1506578500504,492
1506578500512,489
1506578500520,493
1506578500528,491
1506578500537,491
1506578500545,493
1506578500553,490
1506578500561,494
1506578500569,492
1506578500577,491
1506578500586,494
1506578500594,490
1506578500602,493
1506578500610,491
1506578500619,490
1506578500627,491
1506578500635,486
1506578500643,487
1506578500651,483
1506578500655,481
1506578500663,482
1506578500672,476
1506578500680,479
1506578500688,477
1506578500696,477
1506578500704,483
1506578500712,486
1506578500721,499
1506578500729,509
1506578500737,524
1506578500745,544
1506578500754,560
1506578500762,585
1506578500770,605
1506578500778,623
1506578500786,643
1506578500794,654
1506578500803,665
1506578500811,670
1506578500819,671
1506578500823,671
1506578500831,660
1506578500839,652
1506578500848,637
1506578500856,620
1506578500864,605
1506578500872,582
1506578500880,567
1506578500889,547
1506578500897,529
1506578500905,516
1506578500914,499
1506578500922,489
1506578500930,478
1506578500938,468
1506578500946,466
1506578500954,460
1506578500963,461
1506578500971,461
1506578500979,460
1506578500983,464
1506578500991,463
1506578501000,468
1506578501008,471
1506578501016,472
1506578501024,477
1506578501032,478
1506578501040,484
1506578501049,486
1506578501057,487
1506578501065,495
1506578501073,495
1506578501081,502
1506578501090,505
1506578501098,507
1506578501106,512
1506578501114,510
1506578501122,514
1506578501130,514
1506578501139,514
1506578501143,515
1506578501151,510
1506578501159,510
1506578501167,506
1506578501176,501
1506578501184,501
1506578501192,494
1506578501200,492
1506578501208,488
1506578501216,483
1506578501225,483
1506578501233,477
1506578501241,478
1506578501249,475
1506578501257,472
1506578501266,475
1506578501274,471
1506578501282,473
1506578501290,474
1506578501298,472
1506578501302,477
1506578501311,474
1506578501319,477
1506578501327,478
1506578501335,479
1506578501343,482
1506578501351,481
1506578501360,485
1506578501368,486
1506578501376,483
1506578501384,488
1506578501392,484
1506578501401,487
1506578501409,488
1506578501417,487
1506578501425,490
1506578501433,486
1506578501442,488
1506578501450,488
1506578501458,485
1506578501462,489
1506578501470,485
1506578501479,487
1506578501487,487
1506578501495,484
1506578501503,488
1506578501511,486
1506578501519,487
1506578501527,488
1506578501536,486
1506578501544,489
1506578501552,487
1506578501560,488
1506578501568,489
1506578501577,486
1506578501585,489
1506578501593,487
1506578501602,487
1506578501610,487
1506578501618,484
1506578501622,486
1506578501630,483
1506578501639,485
1506578501647,485
1506578501655,483
1506578501663,489
1506578501671,490
1506578501679,498
1506578501688,508
1506578501696,518
1506578501704,536
1506578501712,553
1506578501720,574
1506578501729,596
1506578501737,615
1506578501745,638
1506578501753,652
1506578501761,666
1506578501769,677
1506578501778,678
1506578501782,682
1506578501790,675
1506578501798,667
1506578501806,656
1506578501814,639
1506578501823,625
1506578501831,604
1506578501839,586
1506578501847,568
1506578501855,546
1506578501864,533
1506578501872,514
1506578501880,502
1506578501888,491
1506578501896,480
1506578501904,476
1506578501913,467
1506578501921,466
1506578501929,467
1506578501937,463
1506578501941,468
1506578501949,467
1506578501958,471
1506578501966,473
1506578501974,473
1506578501982,479
1506578501990,479
1506578501998,483
1506578502006,488
1506578502015,488
1506578502023,494
1506578502031,494
1506578502039,498
1506578502047,502
1506578502056,502
1506578502064,508
1506578502072,508
1506578502080,511
1506578502089,513
1506578502097,511
1506578502100,515
1506578502109,512
1506578502117,512
1506578502125,512
1506578502133,506
1506578502142,506
1506578502150,501
1506578502158,497
1506578502166,495
1506578502174,487
1506578502183,487
1506578502191,481
1506578502199,477
1506578502207,475
1506578502216,471
1506578502224,472
1506578502232,468
1506578502241,468
1506578502249,470
1506578502257,469
1506578502261,473
1506578502269,472
1506578502278,473
1506578502286,477
1506578502294,475
1506578502302,479
1506578502310,478
1506578502318,480
1506578502327,484
1506578502335,482
1506578502343,487
1506578502351,488
1506578502359,489
1506578502367,492
1506578502376,491
1506578502384,495
1506578502392,494
1506578502400,494
1506578502408,495
1506578502417,492
1506578502425,495
1506578502429,492
1506578502437,491
1506578502445,493
1506578502453,488
1506578502462,491
1506578502470,488
1506578502478,486
1506578502486,488
1506578502494,483
1506578502503,485
1506578502511,482
1506578502519,482
1506578502527,482
1506578502535,478
1506578502543,481
1506578502552,479
1506578502560,478
1506578502568,480
1506578502576,476
1506578502584,478
1506578502589,477
1506578502597,476
1506578502605,477
1506578502613,473
1506578502621,477
1506578502629,479
1506578502638,483
1506578502646,495
1506578502654,502
1506578502662,520
1506578502670,536
1506578502679,555
1506578502687,577
1506578502695,594
1506578502703,616
1506578502711,633
1506578502719,648
1506578502728,662
1506578502736,665
1506578502744,669
1506578502748,667
1506578502756,658
1506578502764,651
1506578502773,634
1506578502781,620
1506578502789,600
1506578502797,580
1506578502805,563
1506578502814,541
1506578502822,526
1506578502830,509
1506578502838,494
1506578502846,484
1506578502855,470
1506578502863,465
1506578502871,460
1506578502879,456
1506578502887,458
1506578502895,455
1506578502903,458
1506578502907,458
1506578502916,459
1506578502925,464
1506578502933,463
1506578502941,468
1506578502949,470
1506578502957,473
1506578502965,481
1506578502974,481
1506578502982,488
1506578502990,491
1506578502999,494
1506578503006,500
1506578503014,500
1506578503022,506
1506578503030,508
1506578503039,508
1506578503047,513
1506578503055,509
1506578503063,511
1506578503067,508
1506578503075,506
1506578503084,506
1506578503092,499
1506578503101,498
1506578503109,492
1506578503117,486
1506578503125,484
1506578503133,477
1506578503141,475
1506578503150,471
1506578503158,466
1506578503166,466
1506578503174,461
1506578503182,462
1506578503190,460
1506578503199,459
1506578503207,461
1506578503215,458
1506578503223,461
1506578503227,463
1506578503236,462
1506578503244,467
1506578503252,466
1506578503260,470
1506578503268,472
1506578503277,473
1506578503285,478
1506578503293,476
1506578503301,481
1506578503309,481
1506578503318,480
1506578503326,486
1506578503334,483
1506578503342,486
1506578503350,487
1506578503358,485
1506578503366,489
1506578503374,486
1506578503382,489
1506578503386,488
1506578503395,486
1506578503403,489
1506578503411,485
1506578503419,486
1506578503427,486
1506578503436,483
1506578503444,486
1506578503452,481
1506578503461,482
1506578503469,481
1506578503477,478
1506578503485,481
1506578503493,477
1506578503502,479
1506578503510,480
1506578503518,480
1506578503527,488
1506578503535,493
1506578503543,505
1506578503547,520
1506578503555,535
1506578503564,557
1506578503572,574
1506578503580,596
1506578503588,616
1506578503596,631
1506578503605,649
1506578503613,657
1506578503621,665
1506578503629,667
1506578503637,663
1506578503645,659
1506578503654,646
1506578503662,633
1506578503670,619
1506578503678,598
1506578503686,583
1506578503694,561
1506578503703,543
1506578503707,527
1506578503715,507
1506578503723,496
1506578503731,481
1506578503740,472
1506578503748,465
1506578503756,457
1506578503764,457
1506578503772,452
1506578503780,453
1506578503789,454
1506578503797,454
1506578503805,459
1506578503813,458
1506578503821,462
1506578503829,466
1506578503838,466
1506578503846,474
1506578503854,476
1506578503862,480
1506578503866,486
1506578503875,488
1506578503883,495
1506578503891,497
1506578503899,503
1506578503907,507
1506578503915,507
1506578503924,512
1506578503932,510
1506578503940,511
1506578503948,512
1506578503956,508
1506578503965,510
1506578503973,504
1506578503981,501
1506578503989,499
1506578503997,492
1506578504006,490
1506578504014,484
1506578504022,480
1506578504030,479
1506578504034,472
1506578504042,472
1506578504051,468
1506578504059,467
1506578504067,467
1506578504075,464
1506578504083,467
1506578504091,465
1506578504100,468
1506578504108,470
1506578504116,468
1506578504124,473
1506578504132,473
1506578504141,476
1506578504149,480
1506578504158,478
1506578504165,483
1506578504173,482
1506578504181,483
1506578504190,486
1506578504194,485
1506578504202,489
1506578504211,488
1506578504219,489
1506578504227,492
1506578504235,488
1506578504243,492
1506578504252,489
1506578504260,490
1506578504268,491
1506578504276,490
1506578504284,492
1506578504293,488
1506578504301,488
1506578504309,489
1506578504317,487
1506578504325,489
1506578504333,485
1506578504342,483
1506578504350,486
1506578504354,481
1506578504362,484
1506578504370,482
1506578504379,480
1506578504387,481
1506578504395,478
1506578504403,480
1506578504411,478
1506578504419,477
1506578504428,480
1506578504436,480
1506578504444,488
1506578504452,495
1506578504460,507
1506578504468,523
1506578504477,538
1506578504485,562
1506578504493,583
1506578504501,603
1506578504509,627
1506578504514,642
1506578504522,660
1506578504530,671
1506578504538,678
1506578504546,682
1506578504554,676
1506578504563,672
1506578504571,661
1506578504579,645
1506578504587,630
1506578504595,609
1506578504604,592
1506578504612,571
1506578504620,551
1506578504628,534
1506578504636,514
1506578504644,502
1506578504653,488
1506578504661,477
1506578504669,472
1506578504673,463
1506578504681,463
1506578504689,460
1506578504698,460
1506578504706,464
1506578504714,463
1506578504722,468
1506578504731,469
1506578504739,471
1506578504747,477
1506578504755,476
1506578504763,481
1506578504771,483
1506578504780,485
1506578504788,491
1506578504796,490
1506578504804,495
1506578504812,498
1506578504821,501
1506578504829,507
1506578504833,504
1506578504841,510
1506578504849,510
1506578504857,510
1506578504866,513
1506578504874,509
1506578504882,510
1506578504890,506
1506578504898,502
1506578504907,503
1506578504915,496
1506578504923,496
1506578504931,491
1506578504940,486
1506578504948,485
1506578504956,478
1506578504964,478
1506578504972,476
1506578504981,472
1506578504989,474
1506578504993,470
1506578505001,471
1506578505009,470
1506578505017,470
1506578505026,474
1506578505034,471
1506578505042,476
1506578505050,477
1506578505058,477
1506578505067,481
1506578505075,479
1506578505083,482
1506578505091,483
1506578505099,484
1506578505108,487
1506578505116,485
1506578505124,490
1506578505132,490
1506578505140,489
1506578505148,492
1506578505152,488
1506578505161,491
1506578505169,491
1506578505177,489
1506578505185,491
1506578505193,488
1506578505202,489
1506578505210,487
1506578505218,485
1506578505226,489
1506578505234,485
1506578505243,486
1506578505251,485
1506578505259,483
1506578505267,486
1506578505275,483
1506578505284,484
1506578505292,484
1506578505300,483
1506578505308,486
1506578505312,483
1506578505320,484
1506578505329,485
1506578505337,481
1506578505345,483
1506578505353,479
1506578505361,480
1506578505369,480
1506578505378,477
1506578505386,480
1506578505394,479
1506578505402,485
1506578505410,491
1506578505419,499
1506578505427,514
1506578505435,527
1506578505443,548
1506578505451,569
1506578505459,588
1506578505468,613
1506578505472,630
1506578505480,648
1506578505488,663
1506578505496,671
1506578505504,680
1506578505513,678
1506578505521,676
1506578505529,669
1506578505537,655
1506578505545,644
1506578505554,623
1506578505562,606
1506578505570,588
1506578505579,566
1506578505587,550
1506578505595,530
1506578505603,515
1506578505611,501
1506578505619,486
1506578505627,480
1506578505635,470
1506578505640,467
1506578505648,464
1506578505656,460
1506578505664,463
1506578505672,461
1506578505680,463
1506578505688,466
1506578505697,466
1506578505705,470
1506578505713,469
1506578505721,472
1506578505729,476
1506578505738,477
1506578505746,482
1506578505754,482
1506578505762,486
1506578505771,490
1506578505779,489
1506578505786,496
1506578505795,496
1506578505800,499
1506578505808,502
1506578505816,501
1506578505824,506
1506578505833,504
1506578505841,504
1506578505849,504
1506578505857,499
1506578505865,501
1506578505873,496
1506578505882,494
1506578505890,492
1506578505898,486
1506578505906,486
1506578505914,480
1506578505923,478
1506578505931,477
1506578505939,472
1506578505947,473
1506578505955,468
1506578505960,468
1506578505968,469
1506578505976,465
1506578505984,468
1506578505992,467
1506578506000,468
1506578506009,470
1506578506017,468
1506578506025,473
1506578506033,473
1506578506041,474
1506578506049,478
1506578506058,477
1506578506066,481
1506578506074,480
1506578506082,481
1506578506090,484
1506578506099,481
1506578506107,486
1506578506115,484
1506578506119,485
1506578506127,488
1506578506135,485
1506578506144,489
1506578506152,486
1506578506160,487
1506578506168,488
1506578506176,485
1506578506185,488
1506578506193,485
1506578506201,484
1506578506209,486
1506578506217,481
1506578506225,483
1506578506234,480
1506578506242,479
1506578506250,481
1506578506258,477
1506578506266,478
1506578506275,476
1506578506279,476
1506578506287,477
1506578506295,474
1506578506303,477
1506578506312,475
1506578506320,474
1506578506328,475
1506578506336,472
1506578506344,475
1506578506352,474
1506578506361,475
1506578506369,478
1506578506377,479
1506578506385,488
1506578506393,495
1506578506401,507
1506578506410,525
1506578506418,540
1506578506426,564
1506578506434,584
1506578506438,605
1506578506447,626
1506578506455,642
1506578506463,658
1506578506471,666
1506578506480,672
1506578506488,673
1506578506496,666
1506578506504,661
1506578506512,647
1506578506520,630
1506578506529,615
1506578506537,593
1506578506545,575
1506578506553,555
1506578506561,535
1506578506569,518
1506578506578,498
1506578506586,487
1506578506594,472
1506578506598,461
1506578506606,457
1506578506614,449
1506578506622,449
1506578506631,447
1506578506639,446
1506578506647,449
1506578506655,448
1506578506663,453
1506578506672,455
1506578506680,458
1506578506688,464
1506578506696,465
1506578506704,473
1506578506713,477
1506578506721,481
1506578506729,489
1506578506737,490
1506578506745,496
1506578506753,500
1506578506758,503
1506578506766,508
1506578506774,507
1506578506783,511
1506578506791,509
1506578506799,508
1506578506807,510
1506578506815,504
1506578506824,504
1506578506832,501
1506578506840,496
1506578506848,495
1506578506856,488
1506578506864,488
1506578506873,481
1506578506881,477
1506578506889,476
1506578506897,469
1506578506905,469
1506578506913,466
1506578506918,462
1506578506925,464
1506578506934,460
1506578506942,461
1506578506950,463
1506578506958,463
1506578506966,467
1506578506974,465
1506578506983,469
1506578506991,471
1506578506999,471
1506578507008,476
1506578507016,475
1506578507024,480
1506578507032,482
1506578507040,482
1506578507049,487
1506578507057,484
1506578507065,487
1506578507073,493
1506578507077,492
1506578507085,492
1506578507094,488
1506578507102,489
1506578507110,488
1506578507119,485
1506578507127,487
1506578507135,483
1506578507143,484
1506578507151,483
1506578507160,480
1506578507168,482
1506578507176,477
1506578507184,478
1506578507192,476
1506578507201,474
1506578507209,478
1506578507217,477
1506578507225,482
1506578507233,488
1506578507241,495
1506578507246,511
1506578507254,524
1506578507262,544
