time,value
1506083741082,456
1506083741091,454
1506083741100,452
1506083741108,453
1506083741116,452
1506083741124,454
1506083741132,458
1506083741141,460
1506083741149,465
1506083741157,470
1506083741165,477
1506083741173,484
1506083741181,490
1506083741189,498
1506083741194,503
1506083741202,510
1506083741210,520
1506083741218,528
1506083741226,532
1506083741235,534
1506083741243,536
1506083741251,536
1506083741259,536
1506083741267,532
1506083741276,529
1506083741284,525
1506083741292,517
1506083741300,508
1506083741308,502
1506083741316,494
1506083741325,489
1506083741333,484
1506083741341,479
1506083741349,480
1506083741354,478
1506083741361,478
1506083741369,477
1506083741378,475
1506083741386,476
1506083741394,474
1506083741402,474
1506083741410,474
1506083741419,473
1506083741427,476
1506083741434,476
1506083741443,478
1506083741451,481
1506083741460,482
1506083741468,486
1506083741476,486
1506083741485,487
1506083741493,490
1506083741501,492
1506083741509,495
1506083741517,494
1506083741521,494
1506083741530,496
1506083741537,494
1506083741546,496
1506083741554,494
1506083741562,495
1506083741570,496
1506083741578,494
1506083741587,496
1506083741595,495
1506083741603,496
1506083741611,499
1506083741619,497
1506083741627,499
1506083741635,499
1506083741644,499
1506083741652,501
1506083741660,500
1506083741668,502
1506083741676,500
1506083741680,500
1506083741689,500
1506083741698,498
1506083741705,499
1506083741713,497
1506083741721,494
1506083741730,493
1506083741738,489
1506083741747,490
1506083741754,488
1506083741763,486
1506083741771,489
1506083741779,489
1506083741787,498
1506083741795,504
1506083741803,512
1506083741811,522
1506083741819,531
1506083741828,547
1506083741836,561
1506083741840,578
1506083741849,594
1506083741857,606
1506083741866,619
1506083741874,626
1506083741882,630
1506083741890,631
1506083741898,626
1506083741906,619
1506083741915,609
1506083741923,596
1506083741931,583
1506083741939,565
1506083741947,550
1506083741956,532
1506083741964,516
1506083741972,503
1506083741980,488
1506083741988,479
1506083741996,469
1506083742000,462
1506083742009,458
1506083742016,453
1506083742026,452
1506083742033,450
1506083742041,450
1506083742049,454
1506083742057,454
1506083742065,460
1506083742074,464
1506083742082,474
1506083742090,480
1506083742098,483
1506083742106,491
1506083742114,497
1506083742123,503
1506083742131,509
1506083742139,512
1506083742147,518
1506083742155,521
1506083742159,525
1506083742169,528
1506083742177,526
1506083742185,528
1506083742193,527
1506083742201,524
1506083742209,523
1506083742218,518
1506083742226,515
1506083742234,510
1506083742242,505
1506083742250,503
1506083742258,497
1506083742266,495
1506083742275,491
1506083742283,487
1506083742291,486
1506083742299,481
1506083742307,481
1506083742315,479
1506083742320,477
1506083742328,478
1506083742336,476
1506083742345,479
1506083742353,479
1506083742361,480
1506083742369,482
1506083742377,482
1506083742386,485
1506083742394,487
1506083742402,487
1506083742410,490
1506083742419,490
1506083742426,492
1506083742434,493
1506083742443,493
1506083742451,495
1506083742459,494
1506083742467,497
1506083742475,497
1506083742479,497
1506083742487,499
1506083742496,498
1506083742504,500
1506083742512,500
1506083742520,499
1506083742528,501
1506083742536,500
1506083742545,501
1506083742553,502
1506083742562,501
1506083742570,502
1506083742578,500
1506083742587,501
1506083742595,500
1506083742603,499
1506083742611,500
1506083742619,497
1506083742627,496
1506083742635,495
1506083742639,493
1506083742648,494
1506083742656,493
1506083742664,494
1506083742672,497
1506083742680,502
1506083742688,512
1506083742696,522
1506083742705,537
1506083742713,552
1506083742721,567
1506083742729,584
1506083742737,596
1506083742746,608
1506083742754,617
1506083742762,621
1506083742770,624
1506083742779,620
1506083742786,615
1506083742794,607
1506083742798,593
1506083742807,581
1506083742815,564
1506083742823,550
1506083742832,534
1506083742839,518
1506083742848,505
1506083742856,490
1506083742865,480
1506083742873,471
1506083742881,462
1506083742890,458
1506083742898,453
1506083742906,451
1506083742914,451
1506083742922,449
1506083742930,451
1506083742938,452
1506083742947,456
1506083742955,460
1506083742959,465
1506083742967,472
1506083742975,477
1506083742983,485
1506083742991,492
1506083743000,497
1506083743008,505
1506083743016,509
1506083743024,513
1506083743033,517
1506083743041,519
1506083743049,522
1506083743057,521
1506083743065,522
1506083743073,521
1506083743081,518
1506083743089,517
1506083743098,512
1506083743106,510
1506083743114,506
1506083743118,502
1506083743126,500
1506083743134,495
1506083743143,492
1506083743151,489
1506083743159,485
1506083743167,483
1506083743176,480
1506083743184,479
1506083743192,477
1506083743201,475
1506083743209,476
1506083743217,475
1506083743226,476
1506083743233,477
1506083743241,476
1506083743250,478
1506083743258,477
1506083743266,479
1506083743274,481
1506083743282,481
1506083743287,484
1506083743294,484
1506083743303,487
1506083743311,489
1506083743319,489
1506083743327,491
1506083743335,491
1506083743343,492
1506083743352,493
1506083743360,492
1506083743368,495
1506083743376,495
1506083743384,496
1506083743392,498
1506083743401,497
1506083743409,498
1506083743417,496
1506083743425,497
1506083743433,497
1506083743442,496
1506083743446,497
1506083743455,495
1506083743463,496
1506083743471,496
1506083743479,494
1506083743487,495
1506083743496,493
1506083743504,493
1506083743512,493
1506083743520,491
1506083743528,493
1506083743536,494
1506083743544,499
1506083743553,507
1506083743561,516
1506083743569,529
1506083743577,544
1506083743585,561
1506083743593,578
1506083743601,591
1506083743606,607
1506083743614,616
1506083743622,626
1506083743630,630
1506083743638,630
1506083743647,628
1506083743655,620
1506083743663,609
1506083743671,598
1506083743679,583
1506083743687,568
1506083743695,551
1506083743704,534
1506083743712,519
1506083743720,503
1506083743728,490
1506083743736,478
1506083743745,468
1506083743753,462
1506083743761,454
1506083743766,452
1506083743773,449
1506083743781,447
1506083743789,448
1506083743798,449
1506083743806,452
1506083743814,455
1506083743822,459
1506083743830,465
1506083743839,469
1506083743847,477
1506083743855,483
1506083743864,489
1506083743872,496
1506083743880,502
1506083743889,509
1506083743897,513
1506083743905,519
1506083743913,523
1506083743921,525
1506083743926,529
1506083743934,528
1506083743942,529
1506083743950,528
1506083743958,524
1506083743966,522
1506083743974,519
1506083743983,515
1506083743991,511
1506083743999,505
1506083744007,502
1506083744015,496
1506083744023,492
1506083744031,489
1506083744040,484
1506083744048,483
1506083744056,481
1506083744064,479
1506083744072,480
1506083744080,478
1506083744085,478
1506083744093,478
1506083744101,478
1506083744109,479
1506083744117,479
1506083744126,481
1506083744134,481
1506083744143,483
1506083744151,485
1506083744159,485
1506083744167,488
1506083744175,488
1506083744183,490
1506083744192,492
1506083744200,492
1506083744208,494
1506083744216,494
1506083744224,495
1506083744232,496
1506083744240,495
1506083744245,497
1506083744253,496
1506083744261,496
1506083744270,497
1506083744278,496
1506083744286,497
1506083744294,497
1506083744302,496
1506083744310,497
1506083744318,495
1506083744326,497
1506083744335,496
1506083744343,496
1506083744351,497
1506083744359,495
1506083744367,497
1506083744375,496
1506083744384,496
1506083744392,496
1506083744400,494
1506083744404,495
1506083744412,493
1506083744421,494
1506083744429,494
1506083744437,492
1506083744446,497
1506083744453,502
1506083744461,510
1506083744471,522
1506083744479,536
1506083744487,553
1506083744495,570
1506083744503,587
1506083744511,604
1506083744519,615
1506083744528,628
1506083744536,633
1506083744544,636
1506083744552,636
1506083744560,629
1506083744564,622
1506083744573,610
1506083744582,595
1506083744588,581
1506083744597,563
1506083744605,548
1506083744613,530
1506083744621,514
1506083744629,499
1506083744637,484
1506083744646,475
1506083744654,465
1506083744662,457
1506083744670,454
1506083744679,450
1506083744687,449
1506083744696,449
1506083744704,449
1506083744712,452
1506083744720,452
1506083744724,458
1506083744732,461
1506083744740,467
1506083744749,474
1506083744758,480
1506083744765,487
1506083744774,495
1506083744782,501
1506083744790,509
1506083744798,513
1506083744806,520
1506083744814,523
1506083744822,526
1506083744831,530
1506083744839,529
1506083744847,531
1506083744855,530
1506083744863,527
1506083744871,525
1506083744880,519
1506083744884,516
1506083744892,512
1506083744900,508
1506083744908,504
1506083744916,499
1506083744926,496
1506083744934,491
1506083744941,487
1506083744950,486
1506083744958,482
1506083744966,482
1506083744974,481
1506083744982,478
1506083744990,478
1506083744998,477
1506083745006,478
1506083745014,479
1506083745022,479
1506083745031,480
1506083745040,480
1506083745048,480
1506083745052,480
1506083745060,480
1506083745068,483
1506083745077,484
1506083745085,487
1506083745093,489
1506083745101,491
1506083745109,494
1506083745117,494
1506083745126,498
1506083745134,498
1506083745142,499
1506083745150,502
1506083745158,501
1506083745166,503
1506083745175,504
1506083745182,503
1506083745191,505
1506083745199,503
1506083745207,504
1506083745211,505
1506083745219,503
1506083745227,504
1506083745236,503
1506083745244,503
1506083745252,503
1506083745260,501
1506083745268,503
1506083745277,501
1506083745286,503
1506083745293,504
1506083745301,504
1506083745310,506
1506083745319,503
1506083745327,505
1506083745335,505
1506083745343,503
1506083745351,504
1506083745359,501
1506083745367,503
1506083745371,505
1506083745380,508
1506083745388,515
1506083745396,523
1506083745404,537
1506083745412,552
1506083745421,567
1506083745429,584
1506083745437,598
1506083745447,612
1506083745453,623
1506083745461,630
1506083745470,636
1506083745479,634
1506083745486,631
1506083745495,624
1506083745502,613
1506083745510,602
1506083745518,585
1506083745526,570
1506083745531,553
1506083745539,536
1506083745547,522
1506083745555,506
1506083745563,493
1506083745572,481
1506083745580,470
1506083745588,463
1506083745596,456
1506083745604,452
1506083745612,450
1506083745621,448
1506083745629,449
1506083745637,449
1506083745646,452
1506083745655,456
1506083745662,459
1506083745671,467
1506083745678,470
1506083745686,478
1506083745691,486
1506083745699,492
1506083745707,500
1506083745715,507
1506083745723,514
1506083745731,519
1506083745740,524
1506083745748,529
1506083745756,529
1506083745764,530
1506083745772,530
1506083745780,527
1506083745789,527
1506083745797,522
1506083745805,519
1506083745813,515
1506083745821,510
1506083745831,507
1506083745838,502
1506083745848,499
1506083745851,496
1506083745859,492
1506083745867,491
1506083745875,488
1506083745883,486
1506083745892,486
1506083745900,483
1506083745908,485
1506083745916,483
1506083745924,484
1506083745932,485
1506083745941,484
1506083745949,487
1506083745957,486
1506083745966,487
1506083745974,488
1506083745982,486
1506083745990,488
1506083745998,486
1506083746006,486
1506083746010,486
1506083746018,485
1506083746027,486
1506083746035,485
1506083746043,486
1506083746051,487
1506083746060,488
1506083746068,492
1506083746076,492
1506083746084,494
1506083746092,496
1506083746100,497
1506083746109,499
1506083746117,500
1506083746125,502
1506083746133,502
1506083746141,502
1506083746150,504
1506083746158,503
1506083746166,504
1506083746170,505
1506083746178,503
1506083746187,503
1506083746194,501
1506083746203,501
1506083746211,501
1506083746219,500
1506083746227,502
1506083746235,500
1506083746243,501
1506083746252,501
1506083746260,499
1506083746268,500
1506083746276,500
1506083746284,501
1506083746292,506
1506083746300,511
1506083746310,521
1506083746318,532
1506083746326,546
1506083746330,561
1506083746338,574
1506083746346,589
1506083746354,600
1506083746363,611
1506083746371,618
1506083746379,620
1506083746387,622
1506083746395,618
1506083746403,613
1506083746411,604
1506083746420,592
1506083746428,578
1506083746436,562
1506083746444,547
1506083746452,532
1506083746460,515
1506083746469,502
1506083746477,488
1506083746485,477
1506083746493,468
1506083746497,459
1506083746506,456
1506083746513,450
1506083746521,448
1506083746530,448
1506083746538,447
1506083746546,449
1506083746555,450
1506083746562,454
1506083746571,460
1506083746579,465
1506083746587,473
1506083746595,480
1506083746604,487
1506083746612,496
1506083746620,502
1506083746628,510
1506083746637,515
1506083746645,522
1506083746653,527
1506083746657,528
1506083746665,532
1506083746673,532
1506083746682,531
1506083746690,531
1506083746698,528
1506083746706,526
1506083746714,522
1506083746722,518
1506083746731,514
1506083746739,510
1506083746747,507
1506083746755,502
1506083746763,498
1506083746772,496
1506083746780,491
1506083746788,489
1506083746796,486
1506083746804,484
1506083746812,483
1506083746816,480
1506083746825,479
1506083746833,478
1506083746841,477
1506083746849,478
1506083746857,476
1506083746867,478
1506083746875,478
1506083746883,478
1506083746891,480
1506083746899,479
1506083746908,483
1506083746916,484
1506083746924,486
1506083746932,489
1506083746940,490
1506083746948,494
1506083746956,494
1506083746964,496
1506083746972,499
1506083746977,499
1506083746985,502
1506083746993,503
1506083747001,503
1506083747009,505
1506083747017,505
1506083747026,506
1506083747034,505
1506083747042,505
1506083747050,506
1506083747059,503
1506083747067,504
1506083747075,503
1506083747083,502
1506083747091,502
1506083747099,500
1506083747107,501
1506083747115,499
1506083747124,499
1506083747132,499
1506083747137,496
1506083747145,498
1506083747153,496
1506083747161,495
1506083747169,496
1506083747177,497
1506083747186,502
1506083747194,507
1506083747201,517
1506083747210,530
1506083747218,542
1506083747227,560
1506083747235,575
1506083747243,590
1506083747251,604
1506083747260,614
1506083747267,621
1506083747276,625
1506083747284,624
1506083747292,621
1506083747296,612
1506083747304,604
1506083747312,592
1506083747321,578
1506083747329,564
1506083747337,547
1506083747345,534
1506083747353,518
1506083747361,504
1506083747369,494
1506083747378,481
1506083747386,473
1506083747394,465
1506083747402,459
1506083747410,457
1506083747419,453
1506083747427,453
1506083747435,453
1506083747443,452
1506083747451,456
1506083747455,458
1506083747464,463
1506083747474,469
1506083747481,475
1506083747489,482
1506083747497,486
1506083747506,494
1506083747513,501
1506083747522,507
1506083747529,513
1506083747538,517
1506083747546,522
1506083747554,527
1506083747562,529
1506083747570,532
1506083747578,531
1506083747587,531
1506083747595,530
1506083747603,527
1506083747611,524
1506083747615,517
1506083747624,514
1506083747632,510
1506083747640,505
1506083747648,502
1506083747657,497
1506083747665,495
1506083747673,492
1506083747682,489
1506083747690,488
1506083747698,485
1506083747706,485
1506083747714,484
1506083747722,484
1506083747730,485
1506083747739,484
1506083747747,485
1506083747755,487
1506083747763,486
1506083747771,490
1506083747775,489
1506083747784,491
1506083747792,493
1506083747800,493
1506083747809,495
1506083747816,494
1506083747825,496
1506083747833,496
1506083747841,496
1506083747849,499
1506083747857,497
1506083747866,498
1506083747874,498
1506083747882,498
1506083747890,499
1506083747898,497
1506083747906,499
1506083747914,499
1506083747923,498
1506083747931,499
1506083747935,498
1506083747943,498
1506083747951,498
1506083747959,497
1506083747968,498
1506083747976,497
1506083747984,497
1506083747992,497
1506083748001,496
1506083748009,497
1506083748017,494
1506083748025,496
1506083748034,498
1506083748042,500
1506083748050,508
1506083748058,515
1506083748067,527
1506083748074,541
1506083748082,556
1506083748091,573
1506083748098,587
1506083748103,602
1506083748111,614
1506083748119,621
1506083748128,627
1506083748136,626
1506083748144,625
1506083748152,618
1506083748160,608
1506083748168,597
1506083748176,582
1506083748185,568
1506083748193,552
1506083748202,536
1506083748210,522
1506083748218,506
1506083748226,494
1506083748235,483
1506083748243,472
1506083748250,466
1506083748259,459
1506083748263,456
1506083748271,454
1506083748279,452
1506083748288,454
1506083748296,454
1506083748304,457
1506083748312,460
1506083748320,463
1506083748329,470
1506083748337,475
1506083748345,482
1506083748353,489
1506083748361,494
1506083748371,501
1506083748379,506
1506083748386,512
1506083748394,519
1506083748402,521
1506083748410,527
1506083748418,527
1506083748422,531
1506083748431,533
1506083748439,530
1506083748447,531
1506083748455,526
1506083748463,524
1506083748472,521
1506083748480,515
1506083748488,512
1506083748496,507
1506083748504,503
1506083748512,499
1506083748521,494
1506083748529,493
1506083748537,489
1506083748546,486
1506083748554,486
1506083748562,482
1506083748570,483
1506083748577,482
1506083748582,482
1506083748590,483
1506083748599,482
1506083748607,486
1506083748615,485
1506083748623,487
1506083748631,489
1506083748640,488
1506083748648,490
1506083748656,491
1506083748664,492
1506083748672,494
1506083748680,493
1506083748689,495
1506083748697,496
1506083748705,498
1506083748714,499
1506083748721,499
1506083748729,501
1506083748737,500
1506083748742,501
1506083748750,503
1506083748758,501
1506083748766,503
1506083748775,503
1506083748783,503
1506083748791,503
1506083748799,501
1506083748807,502
1506083748815,501
1506083748824,501
1506083748832,502
1506083748840,502
1506083748848,508
1506083748856,514
1506083748865,522
1506083748873,534
1506083748881,547
1506083748889,562
1506083748897,575
1506083748901,590
1506083748909,602
1506083748917,610
1506083748926,618
1506083748934,619
1506083748942,619
1506083748950,616
1506083748958,607
1506083748966,600
1506083748975,587
1506083748983,574
1506083748991,560
1506083748999,544
1506083749007,531
1506083749016,515
1506083749024,504
1506083749032,493
1506083749040,482
1506083749048,476
1506083749056,469
1506083749061,464
1506083749069,461
1506083749077,458
1506083749085,459
1506083749093,458
1506083749102,459
1506083749111,463
1506083749119,464
1506083749127,470
1506083749135,475
1506083749143,480
1506083749151,489
1506083749160,494
1506083749168,502
1506083749176,508
1506083749184,514
1506083749192,520
1506083749200,524
1506083749208,530
1506083749216,531
1506083749221,534
1506083749229,535
1506083749237,533
1506083749245,533
1506083749253,530
1506083749262,527
1506083749270,525
1506083749278,519
1506083749287,515
1506083749294,510
1506083749302,506
1506083749311,503
1506083749319,496
1506083749327,494
1506083749335,490
1506083749343,487
1506083749352,486
1506083749360,483
1506083749368,484
1506083749376,483
1506083749380,483
1506083749388,484
1506083749398,482
1506083749406,484
1506083749414,484
1506083749422,485
1506083749430,487
1506083749438,486
1506083749447,489
1506083749455,490
1506083749463,492
1506083749471,494
1506083749479,494
1506083749487,496
1506083749496,497
1506083749504,498
1506083749512,500
1506083749520,499
1506083749528,501
1506083749536,501
1506083749540,501
1506083749549,504
1506083749557,502
1506083749565,504
1506083749573,504
1506083749582,504
1506083749590,507
1506083749598,509
1506083749606,517
1506083749614,525
1506083749622,537
1506083749630,552
1506083749639,564
1506083749647,579
1506083749655,592
1506083749663,603
1506083749671,613
1506083749679,617
1506083749688,620
1506083749696,619
1506083749700,614
1506083749708,607
1506083749717,595
1506083749725,585
1506083749733,571
1506083749742,556
1506083749750,544
1506083749758,527
1506083749766,515
1506083749774,502
1506083749783,490
1506083749791,481
1506083749799,472
1506083749807,468
1506083749815,463
1506083749823,459
1506083749832,458
1506083749840,456
1506083749848,459
1506083749856,459
1506083749864,461
1506083749869,466
1506083749877,469
1506083749885,475
1506083749893,480
1506083749901,487
1506083749909,494
1506083749917,498
1506083749926,506
1506083749934,512
1506083749942,516
1506083749950,522
1506083749958,525
1506083749966,528
1506083749974,533
1506083749982,532
1506083749991,532
1506083750000,530
1506083750008,528
1506083750016,524
1506083750023,520
1506083750028,518
1506083750036,512
1506083750044,509
1506083750052,505
1506083750061,499
1506083750069,497
1506083750077,492
1506083750085,490
1506083750093,487
1506083750102,485
1506083750110,485
1506083750118,482
1506083750127,483
1506083750135,483
1506083750143,482
1506083750151,485
1506083750159,484
1506083750167,485
1506083750175,487
1506083750183,487
1506083750188,489
1506083750196,490
1506083750204,492
1506083750212,493
1506083750220,494
1506083750229,497
1506083750237,496
1506083750245,498
1506083750253,497
1506083750261,497
1506083750269,499
1506083750277,498
1506083750286,499
1506083750294,499
1506083750302,499
1506083750310,499
1506083750318,498
1506083750327,499
1506083750335,499
1506083750343,497
1506083750349,500
1506083750357,498
1506083750366,502
1506083750373,507
1506083750381,512
1506083750389,525
1506083750397,537
1506083750406,552
1506083750414,568
1506083750422,583
1506083750430,599
1506083750438,610
1506083750446,622
1506083750454,630
1506083750462,632
1506083750471,633
1506083750479,627
1506083750487,619
1506083750495,610
1506083750503,596
1506083750509,583
1506083750516,566
1506083750524,552
1506083750532,537
1506083750541,520
1506083750549,508
1506083750556,495
1506083750565,485
1506083750573,477
1506083750581,469
1506083750589,465
1506083750597,460
1506083750606,459
1506083750614,460
1506083750622,458
1506083750630,461
1506083750638,461
1506083750646,465
1506083750654,469
1506083750662,472
1506083750667,479
1506083750675,482
1506083750683,489
1506083750691,496
1506083750699,500
1506083750708,507
1506083750716,510
1506083750724,515
1506083750732,519
1506083750740,521
1506083750749,525
1506083750757,526
1506083750765,526
1506083750773,526
1506083750781,523
1506083750790,522
1506083750798,518
1506083750806,515
1506083750814,512
1506083750822,508
1506083750826,504
1506083750834,499
1506083750842,496
1506083750851,493
1506083750859,488
1506083750867,487
1506083750875,484
1506083750883,484
1506083750892,483
1506083750900,481
1506083750909,482
1506083750917,480
1506083750925,482
1506083750933,484
1506083750941,482
1506083750950,485
1506083750958,484
1506083750966,486
1506083750974,488
1506083750982,488
1506083750987,490
1506083750994,491
1506083751003,493
1506083751011,495
1506083751019,495
1506083751028,497
1506083751035,497
1506083751044,498
1506083751053,499
1506083751062,499
1506083751069,502
1506083751077,499
1506083751085,500
1506083751094,501
1506083751101,499
1506083751109,501
1506083751118,500
1506083751126,499
1506083751134,499
1506083751142,497
1506083751146,498
1506083751155,496
1506083751163,496
1506083751171,497
1506083751179,496
1506083751187,499
1506083751196,500
1506083751204,507
1506083751212,517
1506083751220,528
1506083751228,544
1506083751237,559
1506083751245,575
1506083751252,592
1506083751261,605
1506083751269,617
1506083751277,625
1506083751286,631
1506083751294,634
1506083751302,629
1506083751306,624
1506083751314,613
1506083751322,601
1506083751331,589
1506083751339,572
1506083751347,557
1506083751355,541
1506083751363,527
1506083751371,513
1506083751379,500
1506083751388,491
1506083751396,480
1506083751404,473
1506083751412,469
1506083751420,462
1506083751429,461
1506083751438,459
1506083751445,459
1506083751454,461
1506083751462,460
1506083751466,465
1506083751474,466
1506083751482,470
1506083751490,475
1506083751498,478
1506083751506,485
1506083751514,489
1506083751523,495
1506083751531,502
1506083751539,504
1506083751547,510
1506083751556,513
1506083751564,518
1506083751573,521
1506083751580,521
1506083751589,524
1506083751597,523
1506083751605,522
1506083751614,520
1506083751621,515
1506083751630,514
1506083751633,510
1506083751641,506
1506083751650,503
1506083751658,498
1506083751666,496
1506083751674,493
1506083751683,491
1506083751691,488
1506083751699,485
1506083751708,486
1506083751715,483
1506083751723,482
1506083751732,482
1506083751740,479
1506083751748,480
1506083751756,480
1506083751764,481
1506083751774,482
1506083751780,481
1506083751788,484
1506083751793,484
1506083751801,486
1506083751810,489
1506083751817,488
1506083751826,491
1506083751835,492
1506083751843,492
1506083751851,494
1506083751859,494
1506083751867,495
1506083751875,495
1506083751884,496
1506083751892,497
1506083751900,496
1506083751908,499
1506083751916,498
1506083751924,498
1506083751933,499
1506083751941,499
1506083751949,500
1506083751953,499
1506083751961,499
1506083751969,499
1506083751977,497
1506083751986,498
1506083751994,496
1506083752003,496
1506083752011,497
1506083752019,495
1506083752027,495
1506083752035,495
1506083752043,495
1506083752051,498
1506083752059,503
1506083752067,513
1506083752076,524
1506083752084,538
1506083752092,556
1506083752100,571
1506083752108,589
1506083752112,604
1506083752121,617
1506083752129,627
1506083752137,630
1506083752145,632
1506083752153,630
1506083752162,623
1506083752171,614
1506083752179,601
1506083752187,589
1506083752195,573
1506083752203,558
1506083752211,543
1506083752219,526
1506083752228,513
1506083752236,501
1506083752244,489
1506083752252,481
1506083752260,473
1506083752268,469
1506083752272,463
1506083752280,459
1506083752289,458
1506083752297,455
1506083752306,457
1506083752314,458
1506083752322,458
1506083752330,464
1506083752338,466
1506083752346,473
1506083752354,479
1506083752362,485
1506083752371,493
1506083752379,497
1506083752387,504
1506083752395,509
1506083752403,513
1506083752411,519
1506083752420,521
1506083752428,524
1506083752432,526
1506083752440,525
1506083752448,527
1506083752457,523
1506083752466,522
1506083752473,519
1506083752482,515
1506083752490,512
1506083752498,506
1506083752506,504
1506083752514,499
1506083752522,496
1506083752531,493
1506083752539,489
1506083752547,487
1506083752555,485
1506083752563,483
1506083752571,482
1506083752579,480
1506083752588,481
1506083752592,480
1506083752600,480
1506083752608,482
1506083752617,482
1506083752625,485
1506083752633,487
1506083752641,487
1506083752650,489
1506083752658,489
1506083752666,491
1506083752674,492
1506083752682,493
1506083752690,494
1506083752698,493
1506083752706,495
1506083752714,496
1506083752723,495
1506083752731,498
1506083752739,496
1506083752747,498
1506083752752,499
1506083752760,499
1506083752768,500
1506083752776,499
1506083752784,500
1506083752792,501
1506083752800,499
1506083752808,501
1506083752817,499
1506083752825,500
1506083752833,500
1506083752841,498
1506083752849,499
1506083752858,498
1506083752866,498
1506083752874,497
1506083752882,496
1506083752890,497
1506083752898,494
1506083752906,495
1506083752911,497
1506083752920,499
1506083752928,508
1506083752936,515
1506083752944,528
1506083752952,543
1506083752960,558
1506083752969,575
1506083752977,588
1506083752985,604
1506083752993,615
1506083753002,621
1506083753010,627
1506083753018,627
1506083753026,624
1506083753034,618
1506083753042,607
1506083753050,596
1506083753059,581
1506083753067,567
1506083753072,551
1506083753079,534
1506083753087,521
1506083753096,505
1506083753104,495
1506083753112,485
1506083753120,475
1506083753128,469
1506083753136,463
1506083753145,458
1506083753153,457
1506083753161,455
1506083753169,456
1506083753178,455
1506083753186,460
1506083753194,463
1506083753203,467
1506083753211,474
1506083753219,479
1506083753227,487
1506083753234,493
1506083753239,498
1506083753247,505
1506083753256,510
1506083753264,516
1506083753272,521
1506083753280,524
1506083753288,528
1506083753296,531
1506083753305,536
1506083753313,537
1506083753321,534
1506083753329,532
1506083753337,528
1506083753345,527
1506083753353,523
1506083753361,518
1506083753370,512
1506083753378,501
1506083753386,498
1506083753394,497
1506083753398,493
1506083753408,492
1506083753415,487
1506083753424,485
1506083753432,484
1506083753440,480
1506083753448,475
1506083753456,471
1506083753464,471
1506083753472,470
1506083753480,472
1506083753489,475
1506083753497,474
1506083753505,477
1506083753513,480
1506083753521,481
1506083753529,484
1506083753538,486
1506083753547,488
1506083753555,494
1506083753559,493
1506083753567,497
1506083753575,497
1506083753584,499
1506083753591,502
1506083753599,500
1506083753608,503
1506083753616,500
1506083753624,500
1506083753632,503
1506083753640,501
1506083753648,501
1506083753656,498
1506083753665,497
1506083753673,496
1506083753682,494
1506083753690,496
1506083753698,494
1506083753706,493
1506083753714,493
1506083753718,491
1506083753726,492
1506083753734,493
1506083753743,495
1506083753751,502
1506083753759,506
1506083753767,514
1506083753775,524
1506083753784,539
1506083753793,554
1506083753800,568
1506083753808,585
1506083753816,597
1506083753825,608
1506083753833,616
1506083753842,619
1506083753850,622
1506083753858,619
1506083753866,614
1506083753874,604
1506083753878,591
1506083753887,579
1506083753894,564
1506083753903,549
1506083753911,535
1506083753919,519
1506083753927,506
1506083753935,494
1506083753943,484
1506083753952,477
1506083753959,471
1506083753969,465
1506083753976,459
1506083753984,457
1506083753992,457
1506083754001,455
1506083754009,456
1506083754018,457
1506083754026,460
1506083754033,465
1506083754038,469
1506083754046,475
1506083754054,480
1506083754062,487
1506083754071,494
1506083754079,498
1506083754087,505
1506083754095,508
1506083754103,513
1506083754111,517
1506083754120,518
1506083754128,522
1506083754136,523
1506083754145,527
1506083754153,530
1506083754161,524
1506083754169,524
1506083754177,522
1506083754185,520
1506083754193,513
1506083754198,503
1506083754206,498
1506083754214,492
1506083754222,487
1506083754230,484
1506083754239,480
1506083754247,478
1506083754255,475
1506083754263,475
1506083754271,475
1506083754279,473
1506083754289,475
1506083754296,475
1506083754304,476
1506083754313,478
1506083754321,478
1506083754329,482
1506083754337,487
1506083754345,491
1506083754352,491
1506083754357,490
1506083754365,497
1506083754373,495
1506083754381,493
1506083754389,492
1506083754397,490
1506083754406,492
1506083754415,492
1506083754423,491
1506083754431,493
1506083754439,491
1506083754447,494
1506083754455,493
1506083754464,495
1506083754472,496
1506083754480,495
1506083754488,497
1506083754496,497
1506083754505,497
1506083754513,498
1506083754517,496
1506083754525,497
1506083754533,496
1506083754542,495
1506083754550,496
1506083754558,494
1506083754566,495
1506083754574,494
1506083754583,494
1506083754591,496
1506083754599,496
1506083754607,502
1506083754616,509
1506083754624,519
1506083754632,534
1506083754640,547
1506083754648,566
1506083754656,582
1506083754665,597
1506083754673,613
1506083754677,621
1506083754685,630
1506083754693,632
1506083754701,631
1506083754709,628
1506083754717,617
1506083754725,608
1506083754734,593
1506083754742,579
1506083754750,564
1506083754758,546
1506083754767,532
1506083754774,517
1506083754783,504
1506083754791,494
1506083754799,481
1506083754807,474
1506083754816,467
1506083754825,462
1506083754833,460
1506083754837,456
1506083754845,458
1506083754853,458
1506083754861,457
1506083754870,460
1506083754878,461
1506083754886,465
1506083754894,469
1506083754902,474
1506083754910,480
1506083754919,485
1506083754927,492
1506083754935,498
1506083754943,504
1506083754951,510
1506083754959,512
1506083754968,517
1506083754976,522
1506083754984,523
1506083754992,525
1506083755000,523
1506083755005,523
1506083755013,522
1506083755021,519
1506083755029,516
1506083755037,513
1506083755046,513
1506083755054,506
1506083755062,504
1506083755070,502
1506083755078,495
1506083755087,491
1506083755094,486
1506083755103,482
1506083755111,479
1506083755119,475
1506083755127,475
1506083755136,474
1506083755144,473
1506083755152,474
1506083755160,474
1506083755164,476
1506083755172,479
1506083755181,484
1506083755189,489
1506083755197,486
1506083755206,488
1506083755213,489
1506083755221,493
1506083755230,498
1506083755238,498
1506083755246,501
1506083755254,502
1506083755262,501
1506083755271,502
1506083755279,495
1506083755287,492
1506083755295,491
1506083755303,489
1506083755311,489
1506083755319,487
1506083755323,488
1506083755332,489
1506083755340,489
1506083755348,492
1506083755356,489
1506083755364,491
1506083755372,491
1506083755381,490
1506083755390,493
1506083755398,492
1506083755406,493
1506083755414,493
1506083755422,492
1506083755431,493
1506083755439,491
1506083755447,493
1506083755455,495
1506083755463,498
1506083755471,505
1506083755479,511
1506083755483,523
1506083755492,537
1506083755500,552
1506083755508,570
1506083755516,585
1506083755524,601
1506083755532,613
1506083755541,622
1506083755549,633
1506083755558,633
1506083755566,634
1506083755574,625
1506083755582,613
1506083755590,602
1506083755599,587
1506083755607,572
1506083755615,556
1506083755623,540
1506083755631,526
1506083755639,510
1506083755643,497
1506083755651,488
1506083755660,476
1506083755668,470
1506083755676,462
1506083755684,459
1506083755692,457
1506083755700,454
1506083755709,455
1506083755717,454
1506083755725,457
1506083755733,458
1506083755741,461
1506083755749,466
1506083755758,469
1506083755766,476
1506083755774,482
1506083755782,486
1506083755790,494
1506083755798,499
1506083755803,506
1506083755811,510
1506083755819,514
1506083755827,518
1506083755835,519
1506083755844,521
1506083755852,523
1506083755860,521
1506083755868,522
1506083755876,518
1506083755885,516
1506083755893,514
1506083755901,509
1506083755909,506
1506083755917,502
1506083755925,498
1506083755933,493
1506083755942,489
1506083755950,487
1506083755958,482
1506083755962,481
1506083755971,479
1506083755978,476
1506083755987,477
1506083755995,475
1506083756003,475
1506083756011,476
1506083756019,475
1506083756028,479
1506083756036,478
1506083756044,480
1506083756052,481
1506083756060,481
1506083756068,485
1506083756078,484
1506083756086,486
1506083756094,489
1506083756102,488
1506083756110,490
1506083756118,490
1506083756123,492
1506083756131,492
1506083756139,493
1506083756147,496
1506083756155,496
1506083756163,498
1506083756172,500
1506083756180,499
1506083756188,501
1506083756196,500
1506083756204,502
1506083756213,502
1506083756221,501
1506083756229,501
1506083756237,499
1506083756245,499
1506083756254,498
1506083756262,496
1506083756270,497
1506083756278,494
1506083756283,493
1506083756291,493
1506083756298,490
1506083756307,489
1506083756315,488
1506083756323,487
1506083756331,487
1506083756340,486
1506083756348,489
1506083756356,491
1506083756364,498
1506083756372,508
1506083756380,519
1506083756388,536
1506083756397,552
1506083756405,570
1506083756413,588
1506083756421,603
1506083756429,617
1506083756437,626
1506083756442,633
1506083756450,635
1506083756458,632
1506083756467,628
1506083756474,618
1506083756484,606
1506083756491,593
1506083756500,576
1506083756509,562
1506083756516,544
1506083756524,528
1506083756532,514
1506083756540,499
1506083756549,489
1506083756557,478
1506083756565,471
1506083756573,466
1506083756581,459
1506083756589,459
1506083756597,456
1506083756605,456
1506083756610,459
1506083756618,459
1506083756627,462
1506083756635,465
1506083756643,470
1506083756651,475
1506083756660,480
1506083756669,488
1506083756677,493
1506083756684,499
1506083756692,506
1506083756700,509
1506083756708,514
1506083756716,518
1506083756724,521
1506083756733,525
1506083756741,524
1506083756749,526
1506083756757,523
1506083756765,522
1506083756769,519
1506083756778,513
1506083756786,511
1506083756794,505
1506083756802,501
1506083756810,497
1506083756819,491
1506083756827,488
1506083756835,484
1506083756843,481
1506083756852,479
1506083756859,476
1506083756868,477
1506083756876,476
1506083756884,476
1506083756892,478
1506083756900,477
1506083756909,479
1506083756916,479
1506083756925,480
1506083756929,483
1506083756937,484
1506083756945,487
1506083756954,487
1506083756962,488
1506083756970,491
1506083756979,490
1506083756987,493
1506083756995,493
1506083757003,493
1506083757012,495
1506083757020,494
1506083757028,496
1506083757036,496
1506083757045,496
1506083757052,497
1506083757060,496
1506083757068,498
1506083757076,497
1506083757084,496
1506083757089,498
1506083757098,495
1506083757106,497
1506083757114,496
1506083757122,495
1506083757130,496
1506083757138,494
1506083757147,494
1506083757154,493
1506083757162,492
1506083757170,493
1506083757179,490
1506083757188,492
1506083757196,491
1506083757204,491
1506083757213,493
1506083757221,492
1506083757229,494
1506083757237,494
1506083757244,496
1506083757249,500
1506083757257,503
1506083757266,513
1506083757274,523
1506083757282,536
1506083757290,553
1506083757298,567
1506083757306,585
1506083757315,599
1506083757323,610
1506083757331,621
1506083757339,626
1506083757349,629
1506083757356,627
1506083757364,622
1506083757373,615
1506083757381,602
1506083757390,591
1506083757397,575
1506083757404,559
1506083757408,545
1506083757417,527
1506083757425,513
1506083757433,500
1506083757441,488
1506083757449,479
1506083757457,469
1506083757466,465
1506083757474,459
1506083757482,456
1506083757490,456
1506083757498,454
1506083757507,456
1506083757514,457
1506083757523,459
1506083757532,464
1506083757540,468
1506083757548,475
1506083757557,481
1506083757564,488
1506083757568,498
1506083757577,502
1506083757585,509
1506083757593,514
1506083757601,518
1506083757609,524
1506083757617,525
1506083757626,528
1506083757634,529
1506083757642,529
1506083757650,529
1506083757658,525
1506083757667,524
1506083757675,521
1506083757683,515
1506083757691,513
1506083757699,506
1506083757707,504
1506083757716,499
1506083757724,494
1506083757728,492
1506083757737,488
1506083757745,487
1506083757753,484
1506083757761,482
1506083757769,482
1506083757777,480
1506083757786,482
1506083757794,482
1506083757802,482
1506083757810,485
1506083757818,484
1506083757826,487
1506083757835,488
1506083757843,489
1506083757851,491
1506083757859,491
1506083757867,494
1506083757875,495
1506083757883,495
1506083757888,498
1506083757896,496
1506083757904,498
1506083757912,499
1506083757920,499
1506083757929,500
1506083757937,499
1506083757945,500
1506083757953,500
1506083757961,499
1506083757969,501
1506083757978,498
1506083757986,500
1506083757994,500
1506083758002,498
1506083758010,500
1506083758019,498
1506083758027,498
1506083758035,498
1506083758043,496
1506083758048,496
1506083758056,493
1506083758064,494
1506083758072,494
1506083758080,494
1506083758089,499
1506083758097,505
1506083758105,514
1506083758113,526
1506083758121,539
1506083758129,555
1506083758138,569
1506083758146,585
1506083758154,597
1506083758162,607
1506083758170,616
1506083758178,618
1506083758187,620
1506083758195,618
1506083758203,609
1506083758207,602
1506083758215,588
1506083758223,575
1506083758232,560
1506083758240,545
1506083758248,531
1506083758256,514
1506083758264,502
1506083758273,490
1506083758281,479
1506083758289,471
1506083758297,462
1506083758305,458
1506083758313,456
1506083758322,452
1506083758330,452
1506083758338,451
1506083758346,453
1506083758355,456
1506083758362,458
1506083758370,464
1506083758375,467
1506083758383,474
1506083758391,481
1506083758399,487
1506083758408,495
1506083758416,500
1506083758424,507
1506083758433,513
1506083758441,515
1506083758449,522
1506083758457,523
1506083758466,525
1506083758474,526
1506083758482,525
1506083758490,524
1506083758498,520
1506083758507,518
1506083758515,515
1506083758523,510
1506083758531,507
1506083758535,501
1506083758543,498
1506083758551,493
1506083758560,488
1506083758568,487
1506083758576,482
1506083758584,481
1506083758592,479
1506083758600,478
1506083758608,478
1506083758617,477
1506083758626,478
1506083758633,479
1506083758641,478
1506083758649,480
1506083758658,480
1506083758666,481
1506083758674,484
1506083758682,484
1506083758690,487
1506083758695,487
1506083758703,489
1506083758712,490
1506083758719,490
1506083758727,493
1506083758736,492
1506083758744,494
1506083758752,496
1506083758760,495
1506083758768,497
1506083758777,496
1506083758785,497
1506083758793,498
1506083758801,497
1506083758810,498
1506083758818,496
1506083758826,498
1506083758834,498
1506083758842,496
1506083758850,497
1506083758855,495
1506083758863,495
1506083758871,496
1506083758879,495
1506083758888,496
1506083758896,496
1506083758904,498
1506083758912,503
1506083758920,509
1506083758928,520
1506083758936,534
1506083758944,549
1506083758952,564
1506083758961,578
1506083758969,594
1506083758977,607
1506083758985,618
1506083758993,625
1506083759001,628
1506083759010,629
1506083759014,623
1506083759023,617
1506083759030,606
1506083759038,592
1506083759047,580
1506083759055,563
1506083759063,548
1506083759071,533
1506083759079,517
1506083759087,505
1506083759095,491
1506083759104,483
1506083759112,474
1506083759120,467
1506083759128,464
1506083759136,459
1506083759145,459
1506083759153,458
1506083759161,457
1506083759169,460
1506083759173,462
1506083759181,465
1506083759190,470
1506083759198,474
1506083759206,481
1506083759214,485
1506083759223,493
1506083759231,500
1506083759239,504
1506083759247,512
1506083759255,515
1506083759264,519
1506083759272,525
1506083759280,527
1506083759288,530
1506083759296,529
1506083759305,529
1506083759313,528
1506083759321,525
1506083759329,524
1506083759333,519
1506083759341,515
1506083759350,512
1506083759358,506
1506083759366,503
1506083759374,498
1506083759382,494
1506083759391,492
1506083759398,486
1506083759407,485
1506083759415,481
1506083759423,480
1506083759431,479
1506083759439,476
1506083759447,479
1506083759456,479
1506083759464,480
1506083759472,482
1506083759480,483
1506083759488,485
1506083759492,485
1506083759501,487
1506083759509,490
1506083759517,489
1506083759526,492
1506083759534,491
1506083759542,493
1506083759550,494
1506083759558,493
1506083759566,496
1506083759574,495
1506083759582,496
1506083759591,497
1506083759599,496
1506083759607,498
1506083759615,498
1506083759623,498
1506083759632,500
1506083759640,498
1506083759649,500
1506083759653,499
1506083759661,497
1506083759669,499
1506083759678,496
1506083759686,497
1506083759694,496
1506083759702,495
1506083759711,495
1506083759719,494
1506083759726,495
1506083759735,493
1506083759743,494
1506083759751,495
1506083759759,495
1506083759768,502
1506083759776,508
1506083759784,519
1506083759792,534
1506083759800,548
1506083759808,567
1506083759812,583
1506083759821,600
1506083759830,614
1506083759838,624
1506083759846,634
1506083759854,639
1506083759862,638
1506083759870,635
1506083759879,626
1506083759888,617
1506083759895,603
1506083759905,587
1506083759912,572
1506083759920,553
1506083759928,539
1506083759936,521
1506083759944,507
1506083759952,495
1506083759960,482
1506083759968,475
1506083759976,470
1506083759981,466
1506083759989,462
1506083759997,458
1506083760006,459
1506083760014,459
1506083760022,460
1506083760030,463
1506083760038,464
1506083760046,471
1506083760054,475
1506083760062,479
1506083760071,486
1506083760079,490
1506083760087,497
1506083760095,503
1506083760103,508
1506083760112,514
1506083760120,517
1506083760128,522
1506083760136,523
1506083760140,525
1506083760148,526
1506083760157,523
1506083760165,524
1506083760173,521
1506083760181,517
1506083760189,515
1506083760197,510
1506083760206,507
1506083760214,502
1506083760222,498
1506083760230,495
1506083760238,490
1506083760247,489
1506083760255,486
1506083760263,484
1506083760271,484
1506083760279,481
1506083760288,482
1506083760295,483
1506083760299,482
1506083760308,483
1506083760316,482
1506083760324,484
1506083760332,484
1506083760340,485
1506083760349,487
1506083760357,485
1506083760366,487
1506083760373,488
1506083760382,490
1506083760390,491
1506083760398,491
1506083760406,493
1506083760415,492
1506083760422,493
1506083760432,495
1506083760439,494
1506083760447,497
1506083760457,497
1506083760459,498
1506083760469,499
1506083760477,499
1506083760485,500
1506083760493,499
1506083760501,499
1506083760510,500
1506083760518,498
1506083760526,500
1506083760534,499
1506083760542,498
1506083760550,500
1506083760558,496
1506083760567,497
1506083760575,495
1506083760583,494
1506083760591,494
1506083760600,492
1506083760608,493
1506083760616,494
1506083760620,497
1506083760628,506
1506083760636,512
1506083760644,527
1506083760653,542
1506083760661,562
1506083760669,584
1506083760678,600
1506083760686,618
1506083760694,629
1506083760702,639
1506083760710,646
1506083760718,645
1506083760727,643
1506083760734,636
1506083760742,621
1506083760751,607
1506083760759,588
1506083760767,573
1506083760775,557
1506083760779,540
1506083760787,526
1506083760796,511
1506083760804,499
1506083760812,489
1506083760820,480
1506083760828,475
1506083760837,468
1506083760845,465
1506083760853,463
1506083760861,460
1506083760869,462
1506083760878,461
1506083760886,463
1506083760894,465
1506083760902,468
1506083760910,473
1506083760918,477
1506083760927,483
1506083760935,487
1506083760939,492
1506083760947,499
1506083760955,502
1506083760964,508
1506083760972,512
1506083760980,516
1506083760988,520
1506083760996,521
1506083761005,524
1506083761013,525
1506083761021,524
1506083761029,524
1506083761037,520
1506083761045,520
1506083761054,517
1506083761062,512
1506083761070,510
1506083761078,505
1506083761087,502
1506083761095,499
1506083761099,495
1506083761107,493
1506083761115,489
1506083761123,488
1506083761131,487
1506083761140,485
1506083761148,486
1506083761156,483
1506083761164,485
1506083761172,486
1506083761180,485
1506083761188,489
1506083761197,488
1506083761205,490
1506083761213,490
1506083761221,491
1506083761230,493
1506083761238,492
1506083761247,494
1506083761255,496
1506083761259,496
1506083761267,498
1506083761275,497
1506083761283,500
1506083761292,502
1506083761300,501
1506083761308,503
1506083761316,502
1506083761324,505
1506083761332,505
1506083761341,504
1506083761349,505
1506083761357,503
1506083761365,503
1506083761373,503
1506083761381,502
1506083761390,503
1506083761398,502
1506083761406,502
1506083761414,500
1506083761418,499
1506083761427,501
1506083761434,497
1506083761442,498
1506083761451,497
1506083761460,495
1506083761468,496
1506083761476,495
1506083761484,497
1506083761492,500
1506083761501,504
1506083761509,513
1506083761517,524
1506083761525,539
1506083761533,555
1506083761541,571
1506083761550,590
1506083761558,603
1506083761566,617
1506083761574,627
1506083761582,632
1506083761586,636
1506083761594,633
1506083761602,629
1506083761610,620
1506083761618,608
1506083761627,597
1506083761635,580
1506083761643,566
1506083761652,550
1506083761659,536
1506083761669,523
1506083761677,515
1506083761685,505
1506083761693,496
1506083761701,487
1506083761710,481
1506083761718,477
1506083761726,474
1506083761734,472
1506083761742,468
1506083761747,467
1506083761755,463
1506083761763,464
1506083761771,466
1506083761779,466
1506083761787,472
1506083761795,475
1506083761803,482
1506083761811,489
1506083761820,497
1506083761828,505
1506083761836,509
1506083761844,516
1506083761853,525
1506083761861,525
1506083761869,528
1506083761877,530
1506083761886,529
1506083761893,528
1506083761902,524
1506083761906,522
1506083761914,517
1506083761922,516
1506083761930,515
1506083761938,509
1506083761946,507
1506083761954,501
1506083761963,499
1506083761972,496
1506083761980,491
1506083761988,490
1506083761996,486
1506083762004,485
1506083762012,484
1506083762021,482
1506083762029,484
1506083762037,482
1506083762045,484
1506083762053,486
1506083762061,485
1506083762065,489
1506083762073,489
1506083762082,490
1506083762090,493
1506083762099,492
1506083762107,496
1506083762115,495
1506083762123,496
1506083762131,497
1506083762139,496
1506083762148,498
1506083762156,497
1506083762164,498
1506083762172,499
1506083762180,498
1506083762189,500
1506083762197,498
1506083762205,500
1506083762213,501
1506083762221,500
1506083762226,501
1506083762234,500
1506083762242,501
1506083762250,501
1506083762259,499
1506083762266,501
1506083762274,498
1506083762282,498
1506083762290,498
1506083762299,496
1506083762307,499
1506083762315,499
1506083762323,503
1506083762331,512
1506083762340,520
1506083762349,535
1506083762356,551
1506083762365,567
1506083762373,587
1506083762381,599
1506083762385,612
1506083762393,623
1506083762401,630
1506083762410,631
1506083762419,626
1506083762428,625
1506083762435,616
1506083762442,605
1506083762450,594
1506083762459,579
1506083762466,566
1506083762475,550
1506083762483,537
1506083762491,524
1506083762499,510
1506083762507,501
1506083762515,490
1506083762524,482
1506083762532,477
1506083762540,470
1506083762544,468
1506083762553,464
1506083762561,462
1506083762570,462
1506083762578,461
1506083762586,465
1506083762594,466
1506083762603,470
1506083762610,475
1506083762619,479
1506083762627,486
1506083762635,491
1506083762643,497
1506083762651,503
1506083762659,508
1506083762667,513
1506083762676,517
1506083762684,522
1506083762692,524
1506083762700,524
1506083762704,526
1506083762712,524
1506083762720,522
1506083762729,520
1506083762737,515
1506083762745,513
1506083762753,508
1506083762761,504
1506083762770,501
1506083762778,496
1506083762786,495
1506083762794,491
1506083762802,488
1506083762811,488
1506083762819,484
1506083762827,483
1506083762835,481
1506083762843,479
1506083762852,481
1506083762859,479
1506083762863,480
1506083762872,479
1506083762880,481
1506083762888,483
1506083762896,482
1506083762905,485
1506083762913,485
1506083762921,486
1506083762929,487
1506083762937,486
1506083762945,489
1506083762954,490
1506083762963,491
1506083762971,493
1506083762979,493
1506083762988,496
1506083762995,496
1506083763003,497
1506083763011,499
1506083763019,498
1506083763023,500
1506083763032,499
1506083763040,500
1506083763048,500
1506083763056,498
1506083763064,498
1506083763072,497
1506083763081,496
1506083763089,496
1506083763098,494
1506083763106,495
1506083763114,495
1506083763122,494
1506083763130,496
1506083763139,497
1506083763148,506
1506083763155,513
1506083763163,524
1506083763171,537
1506083763179,549
1506083763183,567
1506083763192,579
1506083763200,590
1506083763208,603
1506083763217,610
1506083763225,619
1506083763233,622
1506083763241,623
1506083763249,622
1506083763257,616
1506083763265,610
1506083763273,598
1506083763281,584
1506083763290,571
1506083763298,554
1506083763307,541
1506083763315,527
1506083763324,514
1506083763332,505
1506083763339,493
1506083763348,487
1506083763351,480
1506083763360,475
1506083763368,472
1506083763376,467
1506083763384,468
1506083763392,466
1506083763400,464
1506083763409,466
1506083763417,465
1506083763425,472
1506083763433,474
1506083763441,475
1506083763450,480
1506083763458,483
1506083763466,489
1506083763474,494
1506083763482,499
1506083763490,504
1506083763499,507
1506083763507,515
1506083763511,522
1506083763520,525
1506083763528,525
1506083763536,522
1506083763544,518
1506083763552,514
1506083763560,510
1506083763568,507
1506083763576,501
1506083763585,498
1506083763593,494
1506083763601,491
1506083763609,489
1506083763618,483
1506083763626,483
1506083763634,481
1506083763643,478
1506083763651,479
1506083763659,477
1506083763667,478
1506083763671,478
1506083763679,478
1506083763687,480
1506083763696,479
1506083763704,482
1506083763712,482
1506083763720,482
1506083763728,486
1506083763737,484
1506083763744,487
1506083763753,487
1506083763761,488
1506083763769,490
1506083763777,490
1506083763786,491
1506083763793,491
1506083763802,490
1506083763810,493
1506083763818,492
1506083763826,494
1506083763830,496
1506083763839,496
1506083763847,498
1506083763856,497
1506083763864,498
1506083763872,498
1506083763880,498
1506083763888,500
1506083763897,497
1506083763905,500
1506083763913,499
1506083763921,498
1506083763929,499
1506083763937,497
1506083763946,497
1506083763954,496
1506083763962,495
1506083763970,496
1506083763978,492
1506083763986,494
1506083763991,494
1506083763999,494
1506083764007,500
1506083764015,504
1506083764023,516
1506083764032,528
1506083764040,542
1506083764048,561
1506083764056,576
1506083764064,594
1506083764073,609
1506083764081,622
1506083764089,632
1506083764097,635
1506083764106,638
1506083764113,635
1506083764121,628
1506083764130,621
1506083764138,607
1506083764146,594
1506083764150,579
1506083764158,563
1506083764167,548
1506083764175,531
1506083764183,519
1506083764191,507
1506083764199,496
1506083764208,488
1506083764216,478
1506083764224,473
1506083764232,469
1506083764240,466
1506083764248,465
1506083764256,461
1506083764265,462
1506083764273,463
1506083764281,464
1506083764290,469
1506083764298,469
1506083764306,475
1506083764310,480
1506083764318,484
1506083764326,492
1506083764334,496
1506083764342,502
1506083764351,507
1506083764359,511
1506083764367,516
1506083764375,517
1506083764383,523
1506083764391,524
1506083764400,523
1506083764408,525
1506083764416,522
1506083764424,521
1506083764433,518
1506083764441,514
1506083764449,512
1506083764457,506
1506083764465,503
1506083764469,498
1506083764477,494
1506083764487,491
1506083764495,486
1506083764503,486
1506083764511,483
1506083764519,480
1506083764527,480
1506083764535,478
1506083764543,478
1506083764551,479
1506083764560,478
1506083764568,481
1506083764576,481
1506083764584,483
1506083764592,485
1506083764600,486
1506083764609,489
1506083764617,488
1506083764626,490
1506083764630,492
1506083764638,491
1506083764646,493
1506083764654,493
1506083764662,494
1506083764670,495
1506083764679,494
1506083764687,497
1506083764695,495
1506083764703,498
1506083764711,497
1506083764719,496
1506083764727,497
1506083764736,496
1506083764744,496
1506083764752,496
1506083764760,496
1506083764769,496
1506083764777,495
1506083764785,496
1506083764789,496
1506083764798,494
1506083764806,495
1506083764815,492
1506083764822,491
1506083764830,490
1506083764838,488
1506083764847,489
1506083764855,487
1506083764863,488
1506083764871,489
1506083764879,489
1506083764888,494
1506083764896,499
1506083764904,509
1506083764912,522
1506083764920,536
1506083764928,554
1506083764936,571
1506083764944,589
1506083764952,606
1506083764957,619
1506083764965,632
1506083764973,638
1506083764981,647
1506083764989,649
1506083764997,643
1506083765007,638
1506083765015,626
1506083765023,616
1506083765031,600
1506083765038,583
1506083765047,568
1506083765055,546
1506083765063,529
1506083765072,516
1506083765080,505
1506083765088,495
1506083765096,485
1506083765104,479
1506083765112,474
1506083765116,467
1506083765125,461
1506083765133,453
1506083765141,450
1506083765149,450
1506083765157,449
1506083765165,452
1506083765174,453
1506083765183,459
1506083765191,466
1506083765199,472
1506083765207,480
1506083765215,485
1506083765223,492
1506083765232,500
1506083765240,505
1506083765248,512
1506083765256,515
1506083765264,519
1506083765272,523
1506083765276,523
1506083765284,525
1506083765293,522
1506083765301,520
1506083765309,518
1506083765317,513
1506083765325,509
1506083765334,504
1506083765342,500
1506083765351,497
1506083765359,492
1506083765367,489
1506083765375,485
1506083765383,483
1506083765391,482
1506083765399,481
1506083765408,480
1506083765416,475
1506083765424,472
1506083765432,472
1506083765436,470
1506083765445,472
1506083765453,472
1506083765461,475
1506083765469,478
1506083765478,478
1506083765486,481
1506083765493,482
1506083765502,484
1506083765510,488
1506083765519,487
1506083765527,490
1506083765535,490
1506083765543,491
1506083765551,492
1506083765559,492
1506083765567,494
1506083765575,493
1506083765583,494
1506083765591,496
1506083765596,494
1506083765605,496
1506083765613,494
1506083765621,495
1506083765629,496
1506083765637,494
1506083765645,496
1506083765653,494
1506083765661,493
1506083765670,494
1506083765678,493
1506083765685,494
1506083765695,493
1506083765703,493
1506083765711,493
1506083765720,490
1506083765728,491
1506083765736,489
1506083765744,489
1506083765752,491
1506083765756,489
1506083765764,489
1506083765772,489
1506083765781,492
1506083765788,498
1506083765797,505
1506083765805,518
1506083765813,532
1506083765821,548
1506083765829,566
1506083765837,583
1506083765846,600
1506083765854,614
1506083765862,626
1506083765871,634
1506083765878,636
1506083765887,636
1506083765895,631
1506083765903,623
1506083765911,613
1506083765915,598
1506083765923,585
1506083765932,568
1506083765940,551
1506083765948,536
1506083765956,519
1506083765964,507
1506083765972,494
1506083765981,484
1506083765989,477
1506083765997,468
1506083766007,465
1506083766014,460
1506083766022,458
1506083766030,459
1506083766039,456
1506083766046,458
1506083766055,458
1506083766063,461
1506083766071,466
1506083766076,467
1506083766083,473
1506083766092,478
1506083766100,484
1506083766108,491
1506083766116,496
1506083766124,503
1506083766132,509
1506083766141,513
1506083766149,518
1506083766157,519
1506083766165,524
1506083766173,524
1506083766181,524
1506083766189,525
1506083766198,521
1506083766207,519
1506083766214,516
1506083766223,512
1506083766230,509
1506083766234,503
1506083766243,499
1506083766251,495
1506083766259,490
1506083766267,487
1506083766275,483
1506083766284,481
1506083766292,479
1506083766300,478
1506083766308,478
1506083766316,476
1506083766325,477
1506083766333,477
1506083766341,478
1506083766349,480
1506083766357,480
1506083766365,483
1506083766374,484
1506083766382,485
1506083766391,488
1506083766399,487
1506083766403,490
1506083766411,492
1506083766419,492
1506083766427,493
1506083766436,492
1506083766444,495
1506083766452,496
1506083766460,495
1506083766469,497
1506083766477,496
1506083766485,498
1506083766493,498
1506083766501,498
1506083766509,499
1506083766517,498
1506083766526,498
1506083766534,498
1506083766542,498
1506083766550,499
1506083766558,497
1506083766562,497
1506083766570,496
1506083766579,496
1506083766587,496
1506083766596,495
1506083766604,494
1506083766612,493
1506083766620,492
1506083766628,493
1506083766636,492
1506083766645,496
1506083766653,499
1506083766661,504
1506083766669,517
1506083766677,526
1506083766686,541
1506083766693,557
1506083766702,572
1506083766710,588
1506083766718,601
1506083766722,614
1506083766730,623
1506083766738,629
1506083766747,633
1506083766755,629
1506083766763,624
1506083766771,613
1506083766779,600
1506083766788,588
1506083766796,571
1506083766804,556
1506083766812,540
1506083766820,524
1506083766829,511
1506083766837,495
1506083766846,487
1506083766854,477
1506083766862,468
1506083766870,465
1506083766878,458
1506083766882,457
1506083766891,455
1506083766899,454
1506083766907,455
1506083766915,455
1506083766923,459
1506083766932,463
1506083766940,468
1506083766948,476
1506083766956,480
1506083766964,489
1506083766972,495
1506083766981,501
1506083766989,508
1506083766997,512
1506083767006,518
1506083767013,521
1506083767021,524
1506083767029,527
1506083767038,526
1506083767042,526
1506083767050,524
1506083767058,521
1506083767066,520
1506083767074,513
1506083767082,511
1506083767090,506
1506083767099,501
1506083767107,498
1506083767115,494
1506083767123,491
1506083767131,488
1506083767141,485
1506083767149,484
1506083767157,481
1506083767165,481
1506083767173,481
1506083767181,479
1506083767189,481
1506083767197,479
1506083767202,480
1506083767210,482
1506083767218,481
1506083767226,483
1506083767234,483
1506083767242,486
1506083767250,487
1506083767259,488
1506083767267,490
1506083767275,489
1506083767283,491
1506083767291,492
1506083767300,491
1506083767308,493
1506083767316,492
1506083767324,494
1506083767332,494
1506083767340,494
1506083767348,494
1506083767357,494
1506083767361,496
1506083767369,496
1506083767377,494
1506083767386,496
1506083767393,493
1506083767402,494
1506083767410,495
1506083767418,493
1506083767426,494
1506083767435,493
1506083767443,493
1506083767451,493
1506083767460,494
1506083767468,497
1506083767476,496
1506083767484,502
1506083767492,511
1506083767500,519
1506083767508,534
1506083767517,547
1506083767521,564
1506083767529,581
1506083767537,595
1506083767545,609
1506083767554,618
1506083767562,628
1506083767570,633
1506083767578,631
1506083767587,630
1506083767595,621
1506083767603,612
1506083767611,600
1506083767619,584
1506083767627,570
1506083767635,553
1506083767643,538
1506083767652,523
1506083767660,508
1506083767668,498
1506083767676,486
1506083767681,478
1506083767688,471
1506083767697,464
1506083767706,461
1506083767714,457
1506083767722,456
1506083767730,457
1506083767738,457
1506083767747,459
1506083767755,462
1506083767763,466
1506083767771,471
1506083767779,475
1506083767788,483
1506083767796,487
1506083767804,494
1506083767812,501
1506083767820,506
1506083767828,512
1506083767836,515
1506083767841,520
1506083767849,523
1506083767857,524
1506083767865,527
1506083767873,525
1506083767882,525
1506083767890,523
1506083767898,518
1506083767906,516
1506083767914,511
1506083767922,507
1506083767931,504
1506083767939,499
1506083767947,496
1506083767955,492
1506083767963,489
1506083767971,488
1506083767979,483
1506083767988,485
1506083767996,482
1506083768000,481
1506083768009,482
1506083768017,480
1506083768025,481
1506083768033,480
1506083768041,481
1506083768049,481
1506083768057,481
1506083768065,484
1506083768074,484
1506083768083,486
1506083768091,489
1506083768099,488
1506083768107,491
1506083768115,492
1506083768123,493
1506083768131,495
1506083768139,494
1506083768147,496
1506083768155,496
1506083768163,498
1506083768168,499
1506083768177,497
1506083768185,499
1506083768193,499
1506083768202,499
1506083768210,500
1506083768218,498
1506083768226,499
1506083768234,498
1506083768242,498
1506083768250,497
1506083768258,495
1506083768266,496
1506083768274,494
1506083768282,495
1506083768291,495
1506083768299,493
1506083768307,495
1506083768316,495
1506083768324,499
1506083768328,505
1506083768336,511
1506083768344,523
1506083768352,536
1506083768362,552
1506083768369,570
1506083768377,586
1506083768386,604
1506083768394,617
1506083768402,628
1506083768410,637
1506083768418,639
1506083768426,640
1506083768434,635
1506083768442,628
1506083768450,618
1506083768459,604
1506083768467,591
1506083768475,577
1506083768483,561
1506083768487,546
1506083768496,529
1506083768504,517
1506083768512,504
1506083768520,493
1506083768528,484
1506083768537,475
1506083768545,471
1506083768553,465
1506083768561,462
1506083768571,460
1506083768578,457
1506083768586,460
1506083768594,460
1506083768602,463
1506083768610,468
1506083768618,471
1506083768626,477
1506083768634,481
1506083768643,488
1506083768647,496
1506083768655,499
1506083768663,507
1506083768671,510
1506083768679,515
1506083768688,519
1506083768696,521
1506083768704,525
1506083768712,526
1506083768720,525
1506083768730,525
1506083768737,522
1506083768746,521
1506083768753,517
1506083768761,514
1506083768770,510
1506083768778,504
1506083768786,501
1506083768794,496
1506083768802,492
1506083768806,489
1506083768815,484
1506083768823,483
1506083768831,480
1506083768839,484
1506083768847,487
1506083768856,486
1506083768864,487
1506083768872,486
1506083768880,487
1506083768888,491
1506083768896,490
1506083768906,494
1506083768913,494
1506083768921,492
1506083768929,493
1506083768937,491
1506083768946,492
1506083768954,491
1506083768962,491
1506083768966,492
1506083768975,490
1506083768983,493
1506083768991,492
1506083769000,492
1506083769008,495
1506083769016,494
1506083769024,496
1506083769032,497
1506083769040,497
1506083769049,499
1506083769057,498
1506083769065,499
1506083769073,498
1506083769081,498
1506083769090,499
1506083769098,496
1506083769106,497
1506083769114,495
1506083769122,495
1506083769127,494
1506083769135,491
1506083769143,492
1506083769151,490
1506083769159,491
1506083769167,492
1506083769176,491
1506083769184,495
1506083769192,499
1506083769200,506
1506083769208,517
1506083769217,527
1506083769225,544
1506083769233,560
1506083769241,576
1506083769249,595
1506083769257,608
1506083769266,619
1506083769274,626
1506083769282,630
1506083769286,634
1506083769294,630
1506083769302,626
1506083769311,617
1506083769319,605
1506083769327,594
1506083769335,578
1506083769343,564
1506083769351,548
1506083769360,533
1506083769368,521
1506083769376,507
1506083769384,498
1506083769392,488
1506083769401,480
1506083769409,475
1506083769417,467
1506083769425,465
1506083769433,462
1506083769441,460
1506083769446,460
1506083769454,459
1506083769462,463
1506083769470,464
1506083769478,468
1506083769487,475
1506083769495,477
1506083769503,485
1506083769511,490
1506083769519,496
1506083769527,502
1506083769536,506
1506083769544,512
1506083769552,516
1506083769560,519
1506083769569,525
1506083769577,526
1506083769586,528
1506083769594,528
1506083769602,527
1506083769606,527
1506083769614,522
1506083769622,521
1506083769630,516
1506083769638,511
1506083769647,508
1506083769655,502
1506083769663,498
1506083769671,494
1506083769679,490
1506083769687,488
1506083769695,484
1506083769704,483
1506083769713,481
1506083769721,479
1506083769729,480
1506083769737,478
1506083769745,480
1506083769753,481
1506083769761,481
1506083769766,484
1506083769773,484
1506083769782,486
1506083769790,488
1506083769798,489
1506083769806,492
1506083769815,492
1506083769822,495
1506083769831,495
1506083769839,496
1506083769847,498
1506083769855,497
1506083769863,503
1506083769871,506
1506083769879,506
1506083769888,505
1506083769896,504
1506083769904,505
1506083769912,505
1506083769921,503
1506083769928,505
1506083769933,502
1506083769941,504
1506083769949,503
1506083769957,500
1506083769966,501
1506083769974,498
1506083769982,497
1506083769990,496
1506083769998,494
1506083770007,495
1506083770016,492
1506083770024,495
1506083770032,498
1506083770040,502
1506083770048,512
1506083770056,525
1506083770064,539
1506083770073,554
1506083770081,570
1506083770088,587
1506083770093,599
1506083770101,613
1506083770109,623
1506083770117,627
1506083770126,632
1506083770134,627
1506083770142,623
1506083770150,616
1506083770158,603
1506083770166,591
1506083770175,576
1506083770183,562
1506083770191,546
1506083770199,531
1506083770207,518
1506083770216,502
1506083770224,493
1506083770232,484
1506083770240,475
1506083770248,471
1506083770252,464
1506083770261,461
1506083770269,460
1506083770278,458
1506083770286,459
1506083770294,459
1506083770302,463
1506083770310,467
1506083770318,470
1506083770327,477
1506083770335,481
1506083770343,489
1506083770351,495
1506083770359,500
1506083770367,507
1506083770376,511
1506083770384,516
1506083770392,520
1506083770400,522
1506083770408,525
1506083770413,524
1506083770421,526
1506083770429,524
1506083770437,521
1506083770445,520
1506083770453,515
1506083770461,512
1506083770470,509
1506083770478,503
1506083770486,501
1506083770494,495
1506083770502,492
1506083770511,489
1506083770519,484
1506083770527,484
1506083770535,480
1506083770543,480
1506083770551,479
1506083770560,478
1506083770568,479
1506083770572,478
1506083770580,480
1506083770588,480
1506083770596,481
1506083770605,483
1506083770613,484
1506083770621,486
1506083770629,487
1506083770637,487
1506083770646,491
1506083770654,490
1506083770662,491
1506083770670,493
1506083770678,493
1506083770686,494
1506083770695,494
1506083770703,495
1506083770711,495
1506083770719,494
1506083770727,496
1506083770731,495
1506083770740,497
1506083770748,498
1506083770756,496
1506083770764,498
1506083770772,497
1506083770780,497
1506083770789,497
1506083770797,496
1506083770805,496
1506083770813,495
1506083770821,495
1506083770829,494
1506083770838,492
1506083770846,495
1506083770854,495
1506083770862,499
1506083770870,506
1506083770879,512
1506083770887,525
1506083770891,538
1506083770899,554
1506083770907,571
1506083770915,586
1506083770924,603
1506083770933,614
1506083770941,625
1506083770949,632
1506083770958,632
1506083770966,631
1506083770974,625
1506083770982,617
1506083770990,607
1506083770998,593
1506083771007,580
1506083771015,563
1506083771023,549
1506083771031,535
1506083771039,519
1506083771047,508
1506083771051,496
1506083771059,487
1506083771068,480
1506083771076,473
1506083771084,469
1506083771092,464
1506083771101,463
1506083771109,461
1506083771117,459
1506083771125,462
1506083771133,461
1506083771142,465
1506083771150,468
1506083771158,471
1506083771166,477
1506083771174,481
1506083771182,488
1506083771191,494
1506083771199,498
1506083771207,507
1506083771211,509
1506083771219,515
1506083771227,519
1506083771236,520
1506083771244,524
1506083771252,524
1506083771261,524
1506083771269,524
1506083771277,521
1506083771286,520
1506083771294,515
1506083771302,512
1506083771310,509
1506083771318,503
1506083771326,500
1506083771334,494
1506083771342,492
1506083771350,489
1506083771359,484
1506083771367,482
1506083771371,480
1506083771379,480
1506083771387,481
1506083771396,479
1506083771403,481
1506083771412,481
1506083771420,483
1506083771428,484
1506083771437,483
1506083771445,487
1506083771453,486
1506083771461,489
1506083771469,491
1506083771478,492
1506083771486,493
1506083771495,494
1506083771502,496
1506083771510,497
1506083771518,496
1506083771527,498
1506083771535,496
1506083771539,497
1506083771547,499
1506083771556,498
1506083771564,499
1506083771572,498
1506083771580,497
1506083771588,498
1506083771596,496
1506083771604,498
1506083771612,496
1506083771621,497
1506083771629,497
1506083771637,496
1506083771645,498
1506083771653,496
1506083771661,495
1506083771670,494
1506083771678,491
1506083771686,492
1506083771694,490
1506083771698,492
1506083771707,493
1506083771715,495
1506083771723,503
1506083771731,509
1506083771740,522
1506083771748,539
1506083771756,554
1506083771764,575
1506083771773,592
1506083771781,608
1506083771790,623
1506083771797,630
1506083771805,640
1506083771813,640
1506083771822,640
1506083771830,635
1506083771838,623
1506083771846,613
1506083771854,597
1506083771858,583
1506083771867,568
1506083771875,549
1506083771883,534
1506083771891,520
1506083771899,507
1506083771908,496
1506083771915,486
1506083771924,480
1506083771932,473
1506083771941,470
1506083771949,467
1506083771957,463
1506083771965,465
1506083771974,462
1506083771982,462
1506083771989,464
1506083771998,464
1506083772006,469
1506083772013,473
1506083772018,478
1506083772027,484
1506083772035,488
1506083772043,496
1506083772051,501
1506083772059,507
1506083772067,513
1506083772076,515
1506083772084,519
1506083772092,521
1506083772100,523
1506083772108,524
1506083772116,522
1506083772125,522
1506083772132,518
1506083772142,516
1506083772149,513
1506083772157,509
1506083772165,506
1506083772174,501
1506083772177,497
1506083772186,493
1506083772195,487
1506083772203,486
1506083772211,482
1506083772219,480
1506083772227,479
1506083772236,476
1506083772244,478
1506083772252,477
1506083772260,477
1506083772268,479
1506083772276,479
1506083772284,481
1506083772293,482
1506083772301,483
1506083772309,486
1506083772317,486
1506083772325,489
1506083772333,491
1506083772337,492
1506083772345,494
1506083772354,494
1506083772362,496
1506083772371,497
1506083772379,497
1506083772387,498
1506083772395,497
1506083772403,498
1506083772412,497
1506083772420,497
1506083772428,498
1506083772436,497
1506083772444,500
1506083772453,499
1506083772461,500
1506083772469,500
1506083772477,498
1506083772485,499
1506083772493,498
1506083772497,498
1506083772505,498
1506083772513,496
1506083772522,497
1506083772530,496
1506083772538,495
1506083772546,497
1506083772554,494
1506083772563,496
1506083772571,496
1506083772579,497
1506083772587,501
1506083772595,506
1506083772604,516
1506083772612,528
1506083772620,543
1506083772628,561
1506083772636,577
1506083772644,596
1506083772652,610
1506083772656,623
1506083772665,634
1506083772673,637
1506083772681,641
1506083772689,639
1506083772698,633
1506083772706,625
1506083772714,613
1506083772723,600
1506083772731,584
1506083772739,569
1506083772748,553
1506083772756,536
1506083772764,523
1506083772772,510
1506083772780,498
1506083772788,490
1506083772797,481
1506083772805,476
1506083772813,472
1506083772817,467
1506083772826,466
1506083772833,463
1506083772842,462
1506083772850,463
1506083772858,463
1506083772866,468
1506083772874,470
1506083772882,475
1506083772891,481
1506083772899,485
1506083772907,493
1506083772915,498
1506083772924,504
1506083772932,509
1506083772940,513
1506083772948,518
1506083772956,520
1506083772964,523
1506083772972,523
1506083772977,523
1506083772985,524
1506083772993,520
1506083773001,519
1506083773009,515
1506083773018,512
1506083773026,510
1506083773034,504
1506083773042,502
1506083773050,498
1506083773059,494
1506083773067,493
1506083773075,488
1506083773083,486
1506083773091,485
1506083773099,483
1506083773108,483
1506083773116,481
1506083773124,482
1506083773132,481
1506083773136,481
1506083773145,483
1506083773153,482
1506083773161,485
1506083773169,487
1506083773177,488
1506083773185,490
1506083773194,491
1506083773202,493
1506083773210,494
1506083773218,496
1506083773226,498
1506083773234,498
1506083773243,500
1506083773251,501
1506083773259,501
1506083773267,502
1506083773275,500
1506083773283,501
1506083773292,502
1506083773299,501
1506083773304,502
1506083773312,500
1506083773320,501
1506083773329,501
1506083773337,500
1506083773346,500
1506083773354,497
1506083773362,497
1506083773370,496
1506083773378,495
1506083773386,495
1506083773394,493
1506083773403,495
1506083773411,497
1506083773419,499
1506083773427,506
1506083773435,513
1506083773444,525
1506083773452,539
1506083773460,554
1506083773464,572
1506083773472,586
1506083773480,602
1506083773489,614
1506083773496,623
1506083773505,630
1506083773513,630
1506083773521,629
1506083773529,624
1506083773537,615
1506083773546,604
1506083773554,590
1506083773562,577
1506083773570,561
1506083773578,546
1506083773586,532
1506083773595,517
1506083773603,505
1506083773611,494
1506083773619,484
1506083773624,478
1506083773632,471
1506083773640,467
1506083773649,464
1506083773657,461
1506083773665,459
1506083773673,459
1506083773681,460
1506083773689,461
1506083773697,463
1506083773706,469
1506083773714,472
1506083773722,478
1506083773730,484
1506083773738,488
1506083773746,496
1506083773754,500
1506083773762,506
1506083773771,511
1506083773779,514
1506083773783,518
1506083773792,519
1506083773800,521
1506083773808,522
1506083773816,519
1506083773825,519
1506083773833,515
1506083773841,512
1506083773849,509
1506083773857,504
1506083773866,502
1506083773874,496
1506083773882,494
1506083773890,491
1506083773898,486
1506083773906,485
1506083773915,482
1506083773923,481
1506083773931,481
1506083773939,480
1506083773944,481
1506083773951,480
1506083773959,481
1506083773967,482
1506083773976,481
1506083773984,484
1506083773992,484
1506083774000,485
1506083774008,487
1506083774016,486
1506083774025,489
1506083774033,489
1506083774042,490
1506083774050,491
1506083774058,491
1506083774066,493
1506083774074,492
1506083774082,494
1506083774090,495
1506083774099,494
1506083774103,496
1506083774111,495
1506083774119,495
1506083774127,496
1506083774136,495
1506083774144,495
1506083774152,494
1506083774160,495
1506083774168,495
1506083774176,494
1506083774185,495
1506083774193,494
1506083774201,494
1506083774209,493
1506083774217,492
1506083774226,493
1506083774233,491
1506083774243,491
1506083774251,492
1506083774259,492
1506083774263,497
1506083774271,501
1506083774279,510
1506083774287,522
1506083774296,536
1506083774304,555
1506083774313,571
1506083774321,589
1506083774328,606
1506083774336,618
1506083774345,630
1506083774353,636
1506083774361,639
1506083774369,637
1506083774377,631
1506083774386,624
1506083774394,611
1506083774401,598
1506083774410,585
1506083774418,566
1506083774422,552
1506083774430,536
1506083774438,522
1506083774446,509
1506083774455,496
1506083774463,487
1506083774471,479
1506083774479,473
1506083774487,470
1506083774496,464
1506083774505,464
1506083774513,461
1506083774521,460
1506083774528,461
1506083774537,461
1506083774546,464
1506083774554,467
1506083774562,472
1506083774570,478
1506083774578,482
1506083774582,490
1506083774590,495
1506083774598,502
1506083774607,508
1506083774615,511
1506083774623,517
1506083774631,520
1506083774639,523
1506083774648,525
1506083774656,524
1506083774664,524
1506083774673,523
1506083774680,521
1506083774688,519
1506083774696,514
1506083774705,512
1506083774714,507
1506083774722,503
1506083774730,499
1506083774738,494
1506083774746,491
1506083774750,487
1506083774759,484
1506083774767,482
1506083774775,479
1506083774783,479
1506083774791,478
1506083774799,478
1506083774808,479
1506083774816,479
1506083774824,481
1506083774832,482
1506083774840,482
1506083774849,485
1506083774857,485
1506083774866,486
1506083774873,487
1506083774882,489
1506083774890,491
1506083774898,491
1506083774906,494
1506083774910,494
1506083774918,495
1506083774926,496
1506083774934,496
1506083774942,497
1506083774950,497
1506083774958,497
1506083774966,498
1506083774975,496
1506083774983,497
1506083774992,496
1506083775000,497
1506083775008,497
1506083775016,496
1506083775024,496
1506083775033,496
1506083775041,495
1506083775050,495
1506083775058,495
1506083775066,496
1506083775069,494
1506083775077,493
1506083775086,493
1506083775094,490
1506083775102,491
1506083775110,491
1506083775119,492
1506083775127,496
1506083775135,501
1506083775144,512
1506083775152,525
1506083775160,541
1506083775168,558
1506083775176,575
1506083775185,593
1506083775193,608
1506083775201,621
1506083775210,632
1506083775218,636
1506083775225,639
1506083775230,637
1506083775238,630
1506083775246,622
1506083775254,608
1506083775262,595
1506083775271,579
1506083775278,564
1506083775287,549
1506083775295,532
1506083775303,520
1506083775311,506
1506083775319,495
1506083775328,487
1506083775336,477
1506083775344,472
1506083775352,466
1506083775360,463
1506083775369,461
1506083775377,458
1506083775385,460
1506083775389,460
1506083775397,462
1506083775405,465
1506083775413,466
1506083775421,470
1506083775430,475
1506083775438,480
1506083775446,487
1506083775454,491
1506083775462,498
1506083775471,503
1506083775479,508
1506083775487,514
1506083775495,515
1506083775503,520
1506083775511,521
1506083775520,521
1506083775528,523
1506083775536,520
1506083775544,519
1506083775548,517
1506083775557,512
1506083775565,510
1506083775573,504
1506083775581,503
1506083775589,498
1506083775597,493
1506083775606,491
1506083775615,485
1506083775623,483
1506083775631,481
1506083775639,479
1506083775647,479
1506083775655,476
1506083775664,477
1506083775672,477
1506083775680,477
1506083775688,478
1506083775696,478
1506083775704,481
1506083775708,482
1506083775717,483
1506083775725,485
1506083775733,486
1506083775741,488
1506083775749,490
1506083775758,491
1506083775766,493
1506083775774,492
1506083775782,494
1506083775790,494
1506083775798,494
1506083775807,497
1506083775815,495
1506083775823,497
1506083775831,497
1506083775839,497
1506083775847,498
1506083775855,497
1506083775864,499
1506083775868,497
1506083775876,497
1506083775884,498
1506083775892,495
1506083775900,497
1506083775909,497
1506083775917,496
1506083775925,496
1506083775934,494
1506083775942,494
1506083775950,494
1506083775958,493
1506083775967,494
1506083775975,490
1506083775983,493
1506083775991,493
1506083775999,493
1506083776007,499
1506083776015,503
1506083776023,513
1506083776028,527
1506083776036,540
1506083776044,558
1506083776052,575
1506083776060,593
1506083776068,608
1506083776077,620
1506083776086,631
1506083776094,635
1506083776102,638
1506083776110,636
1506083776118,629
1506083776127,622
1506083776135,607
1506083776143,595
1506083776151,579
1506083776159,563
1506083776167,548
1506083776175,531
1506083776183,519
1506083776187,505
1506083776195,493
1506083776204,485
1506083776212,476
1506083776220,471
1506083776229,467
1506083776237,462
1506083776246,461
1506083776253,459
1506083776262,462
1506083776270,463
1506083776278,463
1506083776286,468
1506083776294,470
1506083776302,477
1506083776310,482
1506083776318,487
1506083776327,496
1506083776335,500
1506083776343,506
1506083776347,511
1506083776355,515
1506083776363,522
1506083776372,524
1506083776380,527
1506083776388,528
1506083776396,527
1506083776404,528
1506083776412,525
1506083776421,523
1506083776429,521
1506083776437,516
1506083776446,513
1506083776454,508
1506083776462,505
1506083776471,502
1506083776478,499
1506083776487,496
1506083776495,490
1506083776503,488
1506083776511,486
1506083776515,483
1506083776523,484
1506083776531,481
1506083776540,481
1506083776548,481
1506083776556,480
1506083776564,483
1506083776572,482
1506083776580,485
1506083776588,486
1506083776598,486
1506083776606,490
1506083776614,489
1506083776622,491
1506083776630,493
1506083776638,492
1506083776646,495
1506083776654,495
1506083776662,497
1506083776671,497
1506083776675,496
1506083776683,498
1506083776691,496
1506083776699,496
1506083776708,496
1506083776716,494
1506083776724,495
1506083776733,494
1506083776741,494
1506083776749,495
1506083776757,494
1506083776766,495
1506083776774,494
1506083776782,495
1506083776790,495
1506083776798,492
1506083776807,494
1506083776815,492
1506083776823,493
1506083776831,495
1506083776835,495
1506083776844,500
1506083776851,504
1506083776860,515
1506083776868,527
1506083776877,543
1506083776884,561
1506083776892,576
1506083776900,593
1506083776909,608
1506083776917,619
1506083776925,630
1506083776933,633
1506083776941,635
1506083776949,633
1506083776957,627
1506083776966,619
1506083776974,605
1506083776982,594
1506083776989,579
1506083776994,561
1506083777002,547
1506083777010,530
1506083777020,517
1506083777028,504
1506083777036,493
1506083777044,484
1506083777052,475
1506083777060,469
1506083777068,465
1506083777076,460
1506083777085,459
1506083777093,457
1506083777101,457
1506083777109,458
1506083777117,458
1506083777125,463
1506083777133,465
1506083777141,471
1506083777149,477
1506083777154,482
1506083777162,489
1506083777171,495
1506083777179,502
1506083777187,507
1506083777196,510
1506083777203,515
1506083777212,518
1506083777219,521
1506083777228,522
1506083777236,522
1506083777244,524
1506083777252,520
1506083777260,519
1506083777268,517
1506083777277,513
1506083777286,512
1506083777293,507
1506083777302,503
1506083777310,499
1506083777314,495
1506083777322,492
1506083777330,488
1506083777338,487
1506083777347,485
1506083777355,481
1506083777363,482
1506083777371,479
1506083777380,480
1506083777387,482
1506083777396,481
1506083777405,482
1506083777412,482
1506083777421,483
1506083777428,483
1506083777437,484
1506083777445,486
1506083777453,486
1506083777461,488
1506083777469,491
1506083777473,491
1506083777481,494
1506083777490,495
1506083777498,498
1506083777506,498
1506083777514,498
1506083777523,500
1506083777531,499
1506083777539,500
1506083777548,501
1506083777555,500
1506083777563,501
1506083777571,501
1506083777580,500
1506083777588,501
1506083777596,498
1506083777604,499
1506083777612,496
1506083777620,498
1506083777628,497
1506083777633,495
1506083777641,496
1506083777649,494
1506083777657,495
1506083777666,495
1506083777674,493
1506083777682,495
1506083777690,497
1506083777698,501
1506083777706,508
1506083777716,516
1506083777724,530
1506083777732,544
1506083777740,562
1506083777748,581
1506083777756,596
1506083777765,612
1506083777772,624
1506083777781,634
1506083777788,640
1506083777793,641
1506083777801,640
1506083777809,633
1506083777817,623
1506083777825,610
1506083777833,594
1506083777842,580
1506083777851,562
1506083777859,547
1506083777867,532
1506083777875,516
1506083777883,504
1506083777891,492
1506083777900,483
1506083777908,475
1506083777916,468
1506083777924,464
1506083777932,460
1506083777941,459
1506083777949,459
1506083777953,457
1506083777961,461
1506083777969,462
1506083777977,465
1506083777985,471
1506083777993,474
1506083778001,481
1506083778010,486
1506083778019,493
1506083778027,500
1506083778035,504
1506083778043,510
1506083778051,514
1506083778059,518
1506083778067,523
1506083778076,522
1506083778084,526
1506083778092,526
1506083778100,525
1506083778108,525
1506083778116,521
1506083778121,519
1506083778129,513
1506083778137,509
1506083778145,505
1506083778153,500
1506083778161,497
1506083778169,492
1506083778178,488
1506083778186,487
1506083778195,481
1506083778203,480
1506083778211,478
1506083778219,476
1506083778227,477
1506083778235,476
1506083778243,478
1506083778251,478
1506083778260,479
1506083778268,481
1506083778276,480
1506083778281,483
1506083778289,484
1506083778297,485
1506083778306,487
1506083778313,488
1506083778321,491
1506083778330,491
1506083778338,493
1506083778346,494
1506083778354,493
1506083778362,496
1506083778371,495
1506083778379,496
1506083778387,497
1506083778395,496
1506083778403,497
1506083778412,497
1506083778420,497
1506083778428,498
1506083778436,496
1506083778440,498
1506083778448,496
1506083778456,496
1506083778465,498
1506083778473,496
1506083778481,496
1506083778490,495
1506083778498,495
1506083778506,495
1506083778514,494
1506083778522,495
1506083778530,496
1506083778539,499
1506083778547,505
1506083778555,515
1506083778563,531
1506083778571,545
1506083778579,560
1506083778587,577
1506083778595,591
1506083778600,607
1506083778608,619
1506083778616,631
1506083778625,637
1506083778633,638
1506083778641,638
1506083778649,631
1506083778657,623
1506083778666,613
1506083778674,597
1506083778682,584
1506083778690,568
1506083778698,551
1506083778706,536
1506083778714,519
1506083778723,508
1506083778731,495
1506083778740,485
1506083778748,478
1506083778756,470
1506083778760,467
1506083778768,463
1506083778776,460
1506083778785,460
1506083778793,458
1506083778801,460
1506083778810,461
1506083778817,464
1506083778826,468
1506083778833,471
1506083778842,479
1506083778850,483
1506083778858,489
1506083778867,497
1506083778874,501
1506083778883,508
1506083778891,513
1506083778899,518
1506083778907,523
1506083778915,523
1506083778920,527
1506083778928,527
1506083778936,527
1506083778944,526
1506083778952,522
1506083778960,520
1506083778968,515
1506083778977,510
1506083778985,507
1506083778993,501
1506083779001,498
1506083779009,494
1506083779018,489
1506083779026,487
1506083779034,482
1506083779042,481
1506083779051,478
1506083779059,477
1506083779067,478
1506083779075,476
1506083779079,477
1506083779087,478
1506083779095,478
1506083779104,481
1506083779112,480
1506083779120,483
1506083779128,484
1506083779136,486
1506083779145,489
1506083779153,488
1506083779161,491
1506083779169,492
1506083779177,491
1506083779186,495
1506083779194,493
1506083779202,496
1506083779210,496
1506083779218,496
1506083779227,498
1506083779234,497
1506083779239,499
1506083779247,499
1506083779255,498
1506083779263,500
1506083779271,498
1506083779279,499
1506083779288,499
1506083779296,498
1506083779304,499
1506083779312,497
1506083779320,498
1506083779329,498
1506083779337,496
1506083779345,497
1506083779353,494
1506083779361,495
1506083779370,496
1506083779378,497
1506083779386,504
1506083779394,509
1506083779398,523
1506083779406,541
1506083779415,555
1506083779423,574
1506083779431,590
1506083779439,609
1506083779447,624
1506083779455,634
1506083779464,643
1506083779472,646
1506083779480,646
1506083779488,640
1506083779496,631
1506083779505,621
1506083779514,605
1506083779522,591
1506083779530,574
1506083779538,557
1506083779546,541
1506083779554,523
1506083779560,509
1506083779567,496
1506083779575,485
1506083779583,478
1506083779591,469
1506083779599,464
1506083779608,460
1506083779616,457
1506083779624,456
1506083779632,455
1506083779640,456
1506083779648,457
1506083779656,460
1506083779665,465
1506083779673,469
1506083779681,476
1506083779690,481
1506083779698,487
1506083779706,496
1506083779714,499
1506083779722,507
1506083779727,512
1506083779736,517
1506083779744,523
1506083779752,524
1506083779760,527
1506083779768,529
1506083779776,528
1506083779784,530
1506083779792,524
1506083779800,519
1506083779808,515
1506083779816,510
1506083779825,506
1506083779833,500
1506083779841,497
1506083779849,493
1506083779857,489
1506083779866,488
1506083779874,484
1506083779882,483
1506083779886,482
1506083779894,480
1506083779902,481
1506083779911,479
1506083779919,479
1506083779927,480
1506083779935,480
1506083779943,483
1506083779952,482
1506083779960,486
1506083779968,488
1506083779976,488
1506083779984,491
1506083779992,491
1506083780001,493
1506083780009,494
1506083780017,494
1506083780025,497
1506083780033,496
1506083780042,497
1506083780046,497
1506083780054,499
1506083780062,499
1506083780070,496
1506083780080,497
1506083780088,498
1506083780096,496
1506083780103,497
1506083780112,496
1506083780119,496
1506083780128,496
1506083780136,495
1506083780144,496
1506083780152,494
1506083780160,495
1506083780168,496
1506083780176,496
1506083780185,502
1506083780194,507
1506083780201,518
1506083780206,531
1506083780214,545
1506083780222,563
1506083780230,579
1506083780238,597
1506083780247,611
1506083780255,622
1506083780264,632
1506083780272,635
1506083780279,637
1506083780289,634
1506083780296,626
1506083780304,618
1506083780312,605
1506083780320,591
1506083780328,576
1506083780337,558
1506083780345,544
1506083780353,526
1506083780361,513
1506083780365,500
1506083780373,487
1506083780382,480
1506083780390,470
1506083780398,464
1506083780406,460
1506083780414,455
1506083780422,454
1506083780430,452
1506083780439,452
1506083780447,455
1506083780455,456
1506083780464,462
1506083780471,465
1506083780480,472
1506083780488,480
1506083780496,485
1506083780504,494
1506083780512,499
1506083780520,505
1506083780525,512
1506083780533,515
1506083780541,520
1506083780549,522
1506083780557,525
1506083780566,526
1506083780574,524
1506083780582,524
1506083780590,520
1506083780598,517
1506083780607,515
1506083780615,509
1506083780623,506
1506083780631,501
1506083780639,498
1506083780647,494
1506083780656,489
1506083780664,487
1506083780672,482
1506083780680,481
1506083780684,480
1506083780692,477
1506083780700,477
1506083780709,475
1506083780717,476
1506083780725,477
1506083780733,476
1506083780741,481
1506083780750,480
1506083780758,481
1506083780766,482
1506083780774,483
1506083780782,485
1506083780790,487
1506083780799,488
1506083780807,491
1506083780815,490
1506083780823,493
1506083780831,493
1506083780839,495
1506083780844,496
1506083780852,495
1506083780860,497
1506083780868,496
1506083780876,496
1506083780885,497
1506083780893,495
1506083780902,496
1506083780910,493
1506083780918,493
1506083780926,492
1506083780935,490
1506083780943,492
1506083780951,493
1506083780959,496
1506083780967,502
1506083780976,510
1506083780984,523
1506083780993,536
1506083781001,553
1506083781004,571
1506083781012,587
1506083781020,604
1506083781028,617
1506083781036,629
1506083781046,638
1506083781054,639
1506083781062,639
1506083781070,634
1506083781078,626
1506083781086,615
1506083781094,600
1506083781103,587
1506083781111,569
1506083781119,554
1506083781127,538
1506083781135,521
1506083781143,509
1506083781152,495
1506083781160,485
1506083781164,477
1506083781172,468
1506083781180,464
1506083781188,458
1506083781196,456
1506083781205,454
1506083781213,452
1506083781221,454
1506083781229,455
1506083781237,459
1506083781246,463
1506083781254,466
1506083781262,473
1506083781270,478
1506083781279,486
1506083781287,493
1506083781295,498
1506083781303,505
1506083781311,509
1506083781319,514
1506083781327,519
1506083781331,520
1506083781340,524
1506083781348,525
1506083781356,524
1506083781364,524
1506083781372,520
1506083781380,518
1506083781389,513
1506083781397,510
1506083781405,506
1506083781413,499
1506083781422,497
1506083781430,492
1506083781439,489
1506083781447,486
1506083781455,481
1506083781463,480
1506083781471,477
1506083781480,477
1506083781487,476
1506083781492,474
1506083781500,476
1506083781508,476
1506083781516,478
1506083781524,480
1506083781532,480
1506083781541,484
1506083781549,484
1506083781557,485
1506083781565,487
1506083781573,487
1506083781581,490
1506083781590,488
1506083781598,488
1506083781606,489
1506083781614,487
1506083781623,489
1506083781631,488
1506083781639,487
1506083781647,489
1506083781652,488
1506083781660,489
1506083781668,489
1506083781676,490
1506083781684,493
1506083781693,492
1506083781700,493
1506083781709,492
1506083781717,492
1506083781725,493
1506083781733,490
1506083781741,494
1506083781749,495
1506083781757,498
1506083781765,506
1506083781774,513
1506083781782,527
1506083781790,543
1506083781799,560
1506083781807,579
1506083781811,596
1506083781820,614
1506083781828,628
1506083781836,640
1506083781844,648
1506083781852,650
1506083781860,649
1506083781868,644
1506083781877,635
1506083781885,623
1506083781893,608
1506083781901,593
1506083781909,575
1506083781918,558
1506083781926,542
1506083781934,525
1506083781942,512
1506083781950,499
1506083781958,488
1506083781966,479
1506083781971,469
1506083781979,464
1506083781987,458
1506083781995,455
1506083782003,455
1506083782012,452
1506083782020,454
1506083782028,454
1506083782036,455
1506083782044,459
1506083782052,461
1506083782060,468
1506083782069,474
1506083782077,480
1506083782085,488
1506083782093,493
1506083782101,502
1506083782110,506
1506083782118,512
1506083782126,517
1506083782130,518
1506083782138,522
1506083782147,523
1506083782155,522
1506083782163,523
1506083782171,519
1506083782179,516
1506083782187,512
1506083782196,508
1506083782205,504
1506083782212,498
1506083782220,495
1506083782229,490
1506083782237,485
1506083782245,483
1506083782253,479
1506083782262,477
1506083782269,475
1506083782278,473
1506083782286,474
1506083782290,472
1506083782298,473
1506083782306,473
1506083782314,473
1506083782323,476
1506083782331,475
1506083782340,478
1506083782348,479
1506083782356,480
1506083782364,484
1506083782372,483
1506083782381,487
1506083782389,487
1506083782397,489
1506083782406,491
1506083782413,490
1506083782422,492
1506083782430,492
1506083782438,492
1506083782446,494
1506083782450,494
1506083782458,495
1506083782467,495
1506083782475,495
1506083782483,496
1506083782491,494
1506083782499,496
1506083782507,495
1506083782515,494
1506083782524,494
1506083782532,491
1506083782540,492
1506083782548,491
1506083782556,489
1506083782564,492
1506083782572,492
1506083782581,498
1506083782589,507
1506083782598,517
1506083782606,534
1506083782610,549
1506083782618,569
1506083782626,589
1506083782634,608
1506083782642,627
1506083782650,640
1506083782659,653
1506083782667,660
1506083782675,662
1506083782684,660
1506083782692,652
1506083782700,642
1506083782708,629
1506083782716,612
1506083782724,596
1506083782733,575
1506083782741,558
1506083782749,539
1506083782757,520
1506083782765,507
1506083782769,492
1506083782777,481
1506083782786,472
1506083782794,463
1506083782802,459
1506083782811,453
1506083782819,452
1506083782827,449
1506083782835,448
1506083782843,449
1506083782852,450
1506083782860,454
1506083782868,459
1506083782876,463
1506083782884,470
1506083782893,475
1506083782901,483
1506083782909,489
1506083782917,496
1506083782925,504
1506083782929,507
1506083782938,513
1506083782946,516
1506083782954,517
1506083782962,521
1506083782970,521
1506083782979,522
1506083782986,520
1506083782995,517
1506083783003,516
1506083783011,510
1506083783020,508
1506083783028,503
1506083783036,497
1506083783044,494
1506083783052,486
1506083783060,483
1506083783068,480
1506083783077,476
1506083783085,476
1506083783093,473
1506083783097,474
1506083783106,474
1506083783113,474
1506083783121,477
1506083783130,476
1506083783138,478
1506083783146,479
1506083783155,479
1506083783163,482
1506083783171,482
1506083783179,484
1506083783187,486
1506083783195,487
1506083783203,490
1506083783211,489
1506083783220,492
1506083783228,491
1506083783236,491
1506083783245,491
1506083783252,489
1506083783257,491
1506083783265,491
1506083783273,491
1506083783281,493
1506083783289,492
1506083783298,493
1506083783306,492
1506083783314,491
1506083783322,493
1506083783331,490
1506083783340,492
1506083783346,492
1506083783355,491
1506083783364,495
1506083783372,497
1506083783380,504
1506083783388,514
1506083783397,525
1506083783404,541
1506083783412,558
1506083783417,578
1506083783425,598
1506083783433,615
1506083783441,634
1506083783450,646
1506083783458,657
1506083783466,663
1506083783474,664
1506083783482,661
1506083783490,652
1506083783499,641
1506083783507,627
1506083783516,609
1506083783524,593
1506083783531,574
1506083783539,557
1506083783548,538
1506083783556,520
1506083783564,506
1506083783572,491
1506083783576,480
1506083783584,470
1506083783592,461
1506083783601,457
1506083783609,450
1506083783617,450
1506083783626,448
1506083783634,447
1506083783642,450
1506083783650,452
1506083783658,457
1506083783667,463
1506083783674,469
1506083783683,477
1506083783691,483
1506083783699,490
1506083783707,497
1506083783716,504
1506083783723,511
1506083783731,515
1506083783736,521
1506083783744,524
1506083783752,524
1506083783760,526
1506083783768,524
1506083783777,523
1506083783785,521
1506083783793,516
1506083783801,514
1506083783810,508
1506083783818,505
1506083783826,500
1506083783835,494
1506083783843,491
1506083783851,485
1506083783860,482
1506083783868,479
1506083783875,473
1506083783883,472
1506083783891,470
1506083783896,470
1506083783904,470
1506083783912,468
1506083783920,471
1506083783928,470
1506083783937,472
1506083783945,473
1506083783953,473
1506083783961,477
1506083783969,477
1506083783978,480
1506083783986,483
1506083783994,483
1506083784002,485
1506083784011,486
1506083784019,488
1506083784027,489
1506083784035,488
1506083784043,491
1506083784052,490
1506083784056,490
1506083784064,490
1506083784072,488
1506083784080,490
1506083784088,488
1506083784096,488
1506083784105,489
1506083784113,490
1506083784121,495
1506083784129,499
1506083784137,507
1506083784145,519
1506083784154,531
1506083784162,549
1506083784170,566
1506083784178,585
1506083784186,606
1506083784194,622
1506083784203,639
1506083784211,649
1506083784215,657
1506083784223,660
1506083784231,657
1506083784239,653
1506083784248,641
1506083784256,628
1506083784264,613
1506083784272,593
1506083784280,576
1506083784289,555
1506083784297,537
1506083784305,519
1506083784313,502
1506083784321,489
1506083784330,475
1506083784338,465
1506083784346,458
1506083784354,448
1506083784362,445
1506083784370,439
1506083784374,438
1506083784383,439
1506083784391,438
1506083784399,442
1506083784407,446
1506083784415,452
1506083784424,459
1506083784432,465
1506083784440,475
1506083784448,483
1506083784456,490
1506083784465,498
1506083784473,504
1506083784482,512
1506083784490,515
1506083784498,519
1506083784506,524
1506083784514,524
1506083784523,526
1506083784531,524
1506083784535,522
1506083784544,521
1506083784551,516
1506083784560,513
1506083784568,506
1506083784576,502
1506083784584,498
1506083784592,491
1506083784600,489
1506083784608,483
1506083784616,479
1506083784626,477
1506083784633,473
1506083784642,472
1506083784650,470
1506083784658,471
1506083784666,472
1506083784674,470
1506083784682,473
1506083784691,473
1506083784698,475
1506083784703,477
1506083784711,476
1506083784719,479
1506083784727,479
1506083784735,480
1506083784744,482
1506083784752,482
1506083784760,485
1506083784768,483
1506083784776,485
1506083784784,486
1506083784793,485
1506083784801,487
1506083784809,486
1506083784817,488
1506083784825,489
1506083784834,491
1506083784842,496
1506083784850,502
1506083784858,513
1506083784862,526
1506083784870,540
1506083784878,560
1506083784887,578
1506083784895,598
1506083784903,618
1506083784911,633
1506083784919,649
1506083784928,658
1506083784936,663
1506083784944,664
1506083784952,658
1506083784961,652
1506083784969,639
1506083784977,623
1506083784985,606
1506083784993,585
1506083785002,566
1506083785010,546
1506083785018,526
1506083785022,510
1506083785030,491
1506083785038,479
1506083785046,465
1506083785054,456
1506083785063,450
1506083785071,441
1506083785079,438
1506083785087,434
1506083785096,433
1506083785104,435
1506083785112,435
1506083785121,442
1506083785129,447
1506083785137,453
1506083785145,461
1506083785153,467
1506083785161,478
1506083785169,486
1506083785177,495
1506083785182,503
1506083785190,508
1506083785198,516
1506083785207,519
1506083785215,523
1506083785223,527
1506083785231,526
1506083785239,526
1506083785248,524
1506083785256,522
1506083785264,520
1506083785272,514
1506083785280,511
1506083785288,505
1506083785296,499
1506083785304,496
1506083785312,489
1506083785321,487
1506083785330,482
1506083785338,479
1506083785342,477
1506083785350,473
1506083785358,473
1506083785367,472
1506083785375,473
1506083785383,474
1506083785391,471
1506083785399,475
1506083785408,475
1506083785416,476
1506083785424,478
1506083785432,477
1506083785440,479
1506083785448,480
1506083785457,481
1506083785465,483
1506083785473,483
1506083785481,486
1506083785489,485
1506083785497,486
1506083785501,488
1506083785509,486
1506083785517,488
1506083785525,487
1506083785535,488
1506083785543,489
1506083785551,489
1506083785559,494
1506083785567,498
1506083785575,506
1506083785583,519
1506083785592,531
1506083785600,552
1506083785608,572
1506083785616,592
1506083785624,616
1506083785632,634
1506083785640,653
1506083785648,667
1506083785657,677
1506083785661,683
1506083785670,679
1506083785678,677
1506083785687,666
1506083785694,650
1506083785703,634
1506083785710,612
1506083785718,593
1506083785726,570
1506083785734,548
1506083785743,529
1506083785751,508
1506083785760,493
1506083785768,477
1506083785776,464
1506083785785,455
1506083785792,444
1506083785800,441
1506083785809,435
1506083785817,433
1506083785821,435
1506083785829,435
1506083785837,440
1506083785846,444
1506083785854,451
1506083785862,460
1506083785870,466
1506083785879,478
1506083785887,487
1506083785895,496
1506083785903,506
1506083785911,512
1506083785919,520
1506083785927,527
1506083785935,531
1506083785944,536
1506083785952,537
1506083785960,538
1506083785968,535
1506083785976,533
1506083785980,531
1506083785989,524
1506083785997,521
1506083786005,516
1506083786013,509
1506083786021,505
1506083786030,498
1506083786038,495
1506083786046,489
1506083786054,484
1506083786062,482
1506083786070,478
1506083786078,477
1506083786087,476
1506083786095,474
1506083786105,475
1506083786112,474
1506083786119,475
1506083786129,475
1506083786136,476
1506083786141,478
1506083786149,478
1506083786157,481
1506083786166,481
1506083786173,482
1506083786181,486
1506083786190,485
1506083786198,491
1506083786206,493
1506083786214,491
1506083786222,491
1506083786230,490
1506083786239,490
1506083786246,490
1506083786255,489
1506083786263,491
1506083786272,491
1506083786280,496
1506083786288,502
1506083786296,510
1506083786300,523
1506083786308,536
1506083786316,556
1506083786324,576
1506083786333,597
1506083786341,620
1506083786349,637
1506083786357,654
1506083786365,667
1506083786373,675
1506083786382,681
1506083786390,676
1506083786398,672
1506083786406,660
1506083786414,645
1506083786423,629
1506083786430,607
1506083786439,587
1506083786447,565
1506083786455,543
1506083786463,525
1506083786467,504
1506083786476,488
1506083786484,472
1506083786492,459
1506083786500,450
1506083786508,439
1506083786516,434
1506083786525,430
1506083786533,428
1506083786541,431
1506083786549,432
1506083786558,438
1506083786567,444
1506083786574,451
1506083786582,461
1506083786590,469
1506083786598,480
1506083786607,490
1506083786614,497
1506083786622,507
1506083786627,513
1506083786635,521
1506083786643,527
1506083786651,530
1506083786660,533
1506083786668,533
1506083786676,532
1506083786685,530
1506083786693,526
1506083786702,524
1506083786710,518
1506083786718,512
1506083786726,506
1506083786734,499
1506083786743,495
1506083786751,488
1506083786759,485
1506083786767,481
1506083786776,477
1506083786783,476
1506083786787,471
1506083786796,470
1506083786804,470
1506083786812,468
1506083786820,470
1506083786828,468
1506083786836,470
1506083786845,471
1506083786853,471
1506083786861,474
1506083786869,473
1506083786877,476
1506083786886,477
1506083786894,477
1506083786902,481
1506083786910,480
1506083786918,483
1506083786927,484
1506083786935,485
1506083786944,487
1506083786947,486
1506083786955,488
1506083786963,488
1506083786972,487
1506083786980,490
1506083786988,488
1506083786996,491
1506083787004,497
1506083787012,504
1506083787021,517
1506083787029,530
1506083787037,550
1506083787045,572
1506083787054,595
1506083787062,619
1506083787070,639
1506083787078,660
1506083787087,675
1506083787095,685
1506083787103,692
1506083787107,692
1506083787115,687
1506083787123,677
1506083787132,663
1506083787140,646
1506083787148,625
1506083787156,604
1506083787164,581
1506083787172,558
1506083787181,537
1506083787189,514
1506083787197,497
1506083787205,481
1506083787213,465
1506083787222,454
1506083787230,443
1506083787238,436
1506083787246,431
1506083787254,427
1506083787262,429
1506083787266,428
1506083787274,432
1506083787282,437
1506083787292,442
1506083787300,452
1506083787308,459
1506083787316,469
1506083787324,479
1506083787332,486
1506083787340,497
1506083787349,504
1506083787357,511
1506083787365,518
1506083787373,523
1506083787381,528
1506083787390,528
1506083787398,530
1506083787406,530
1506083787414,527
1506083787422,525
1506083787427,519
1506083787435,515
1506083787443,510
1506083787451,503
1506083787459,498
1506083787467,492
1506083787476,487
1506083787484,482
1506083787492,476
1506083787500,475
1506083787508,469
1506083787516,468
1506083787525,467
1506083787533,464
1506083787541,464
1506083787549,463
1506083787557,465
1506083787566,466
1506083787573,465
1506083787581,468
1506083787586,467
1506083787594,471
1506083787602,473
1506083787610,474
1506083787618,478
1506083787627,478
1506083787635,480
1506083787643,482
1506083787651,483
1506083787660,486
1506083787668,484
1506083787676,487
1506083787684,488
1506083787692,486
1506083787700,489
1506083787709,487
1506083787717,487
1506083787725,488
1506083787734,487
1506083787742,489
1506083787746,487
1506083787754,489
1506083787762,491
1506083787770,493
1506083787778,502
1506083787787,512
1506083787795,528
1506083787803,546
1506083787811,567
1506083787819,592
1506083787827,616
1506083787836,641
1506083787844,662
1506083787852,679
1506083787860,694
1506083787868,700
1506083787876,705
1506083787885,703
1506083787893,691
1506083787901,680
1506083787905,661
1506083787913,642
1506083787921,619
1506083787930,593
1506083787938,570
1506083787946,545
1506083787954,525
1506083787963,504
1506083787971,484
1506083787979,470
1506083787988,455
1506083787996,446
1506083788004,439
1506083788012,431
1506083788020,429
1506083788028,426
1506083788036,427
1506083788045,429
1506083788053,431
1506083788061,438
1506083788069,444
1506083788073,454
1506083788081,463
1506083788089,471
1506083788098,481
1506083788107,489
1506083788114,499
1506083788123,507
1506083788131,513
1506083788139,520
1506083788147,523
1506083788155,527
1506083788163,529
1506083788171,528
1506083788179,529
1506083788188,524
1506083788196,521
1506083788204,516
1506083788213,510
1506083788221,506
1506083788229,499
1506083788234,495
1506083788242,490
1506083788250,482
1506083788258,480
1506083788266,474
1506083788274,470
1506083788282,469
1506083788291,466
1506083788299,466
1506083788307,464
1506083788315,466
1506083788323,466
1506083788331,465
1506083788340,469
1506083788348,469
1506083788356,470
1506083788364,473
1506083788373,472
1506083788380,476
1506083788388,476
1506083788394,479
1506083788401,480
1506083788410,480
1506083788418,483
1506083788426,482
1506083788434,483
1506083788442,486
1506083788450,485
1506083788458,487
1506083788466,487
1506083788475,487
1506083788483,489
1506083788491,487
1506083788499,490
1506083788507,489
1506083788515,490
1506083788523,490
1506083788532,487
1506083788540,489
1506083788548,488
1506083788553,488
1506083788561,490
1506083788569,492
1506083788578,500
1506083788586,511
1506083788594,524
1506083788602,543
1506083788610,562
1506083788618,587
1506083788627,609
1506083788635,634
1506083788643,658
1506083788651,673
1506083788659,689
1506083788667,697
1506083788675,700
1506083788683,699
1506083788691,689
1506083788700,678
1506083788708,661
1506083788712,641
1506083788720,619
1506083788728,592
1506083788736,572
1506083788745,547
1506083788753,525
1506083788762,506
1506083788769,485
1506083788777,471
1506083788786,458
1506083788795,448
1506083788802,440
1506083788811,433
1506083788819,430
1506083788827,427
1506083788835,427
1506083788843,430
1506083788852,432
1506083788860,439
1506083788868,446
1506083788872,453
1506083788880,463
1506083788888,470
1506083788897,482
1506083788905,490
1506083788913,499
1506083788921,508
1506083788929,513
1506083788938,521
1506083788946,525
1506083788954,529
1506083788962,532
1506083788970,530
1506083788978,529
1506083788987,525
1506083788995,520
1506083789003,517
1506083789011,510
1506083789019,506
1506083789027,499
1506083789032,493
1506083789040,489
1506083789048,483
1506083789056,480
1506083789064,476
1506083789073,472
1506083789081,470
1506083789089,466
1506083789097,466
1506083789105,465
1506083789113,465
1506083789121,466
1506083789130,464
1506083789138,468
1506083789147,467
1506083789155,469
1506083789163,474
1506083789171,472
1506083789180,475
1506083789187,476
1506083789192,477
1506083789200,479
1506083789208,478
1506083789216,481
1506083789224,481
1506083789232,482
1506083789241,484
1506083789249,483
1506083789257,486
1506083789266,486
1506083789273,487
1506083789282,489
1506083789290,489
1506083789298,490
1506083789306,490
1506083789315,490
1506083789323,492
1506083789331,489
1506083789339,490
1506083789347,488
1506083789351,488
1506083789359,489
1506083789368,487
1506083789376,487
1506083789384,488
1506083789392,492
1506083789400,500
1506083789409,508
1506083789417,525
1506083789425,541
1506083789433,561
1506083789441,584
1506083789449,605
1506083789457,628
1506083789467,649
1506083789474,664
1506083789482,678
1506083789490,683
1506083789498,687
1506083789507,683
1506083789511,675
1506083789519,663
1506083789527,645
1506083789535,626
1506083789543,605
1506083789552,581
1506083789560,560
1506083789568,536
1506083789576,515
1506083789584,495
1506083789592,478
1506083789601,463
1506083789609,450
1506083789617,441
1506083789625,434
1506083789633,428
1506083789642,427
1506083789651,424
1506083789658,428
1506083789667,432
1506083789670,437
1506083789678,445
1506083789687,451
1506083789695,461
1506083789703,470
1506083789711,478
1506083789719,489
1506083789727,496
1506083789736,506
1506083789744,513
1506083789752,519
1506083789760,526
1506083789769,528
1506083789777,531
1506083789785,532
1506083789793,530
1506083789801,529
1506083789809,524
1506083789818,521
1506083789827,516
1506083789835,511
1506083789839,506
1506083789847,499
1506083789855,495
1506083789863,489
1506083789872,484
1506083789880,481
1506083789888,476
1506083789896,473
1506083789904,471
1506083789913,468
1506083789921,468
1506083789929,466
1506083789937,468
1506083789945,469
1506083789953,469
1506083789962,473
1506083789970,471
1506083789978,474
1506083789986,476
1506083789994,476
1506083789998,479
1506083790006,479
1506083790014,482
1506083790023,483
1506083790032,483
1506083790040,486
1506083790048,485
1506083790056,487
1506083790064,491
1506083790072,489
1506083790080,492
1506083790088,490
1506083790096,490
1506083790106,490
1506083790113,489
1506083790121,491
1506083790130,489
1506083790138,489
1506083790146,488
1506083790154,488
1506083790158,489
1506083790167,489
1506083790175,493
1506083790183,498
1506083790191,505
1506083790199,518
1506083790207,531
1506083790215,550
1506083790223,570
1506083790231,590
1506083790240,613
1506083790248,630
1506083790256,649
1506083790264,663
1506083790273,670
1506083790281,677
1506083790290,676
1506083790298,669
1506083790306,658
1506083790314,642
1506083790318,625
1506083790326,603
1506083790334,583
1506083790343,560
1506083790351,537
1506083790359,518
1506083790368,497
1506083790376,481
1506083790384,465
1506083790392,451
1506083790400,442
1506083790408,433
1506083790416,428
1506083790425,423
1506083790433,421
1506083790441,424
1506083790449,425
1506083790457,430
1506083790465,437
1506083790473,444
1506083790477,455
1506083790486,464
1506083790494,475
1506083790502,486
1506083790510,493
1506083790518,502
1506083790527,508
1506083790535,516
1506083790543,523
1506083790551,526
1506083790559,531
1506083790568,530
1506083790576,530
1506083790584,530
1506083790592,525
1506083790600,523
1506083790608,517
1506083790617,513
1506083790625,508
1506083790633,501
1506083790637,498
1506083790645,491
1506083790653,488
1506083790662,484
1506083790670,478
1506083790678,476
1506083790686,471
1506083790694,471
1506083790702,469
1506083790711,467
1506083790719,468
1506083790727,466
1506083790735,467
1506083790744,467
1506083790752,466
1506083790760,469
1506083790768,468
1506083790776,471
1506083790784,472
1506083790792,473
1506083790796,476
1506083790805,477
1506083790813,479
1506083790821,481
1506083790829,481
1506083790837,484
1506083790846,483
1506083790854,485
1506083790862,486
1506083790870,486
1506083790879,489
1506083790887,488
1506083790895,488
1506083790903,489
1506083790911,488
1506083790920,489
1506083790928,487
1506083790936,488
1506083790944,488
1506083790952,486
1506083790956,489
1506083790965,490
1506083790973,496
1506083790981,505
1506083790989,516
1506083790997,533
1506083791005,550
1506083791014,572
1506083791022,594
1506083791030,616
1506083791038,638
1506083791046,652
1506083791054,666
1506083791063,674
1506083791071,675
1506083791079,675
1506083791087,666
1506083791095,654
1506083791104,639
1506083791112,619
1506083791116,599
1506083791124,575
1506083791133,554
1506083791142,533
1506083791150,513
1506083791158,495
1506083791166,477
1506083791174,463
1506083791182,452
1506083791190,441
1506083791199,436
1506083791207,429
1506083791215,427
1506083791223,426
1506083791231,426
1506083791239,430
1506083791248,434
1506083791256,441
1506083791264,449
1506083791272,455
1506083791277,466
1506083791285,474
1506083791293,483
1506083791301,493
1506083791309,500
1506083791317,509
1506083791326,514
1506083791334,521
1506083791342,525
1506083791350,527
1506083791358,530
1506083791367,528
1506083791375,527
1506083791383,526
1506083791391,520
1506083791399,518
1506083791408,511
1506083791416,507
1506083791424,501
1506083791432,495
1506083791437,491
1506083791445,484
1506083791452,480
1506083791461,477
1506083791469,472
1506083791477,471
1506083791485,468
1506083791493,468
1506083791501,467
1506083791510,466
1506083791518,467
1506083791526,467
1506083791535,469
1506083791543,470
1506083791551,469
1506083791559,471
1506083791567,471
1506083791576,473
1506083791584,475
1506083791592,474
1506083791600,477
1506083791604,478
1506083791612,480
1506083791621,482
1506083791629,481
1506083791637,485
1506083791645,485
1506083791653,488
1506083791661,489
1506083791670,489
1506083791678,493
1506083791686,491
1506083791694,492
1506083791702,493
1506083791710,491
1506083791718,492
1506083791727,491
1506083791735,490
1506083791743,489
1506083791751,487
1506083791759,490
1506083791764,488
1506083791772,491
1506083791780,497
1506083791788,503
1506083791798,517
1506083791805,532
1506083791814,550
1506083791821,573
1506083791829,593
1506083791837,617
1506083791845,635
1506083791854,653
1506083791862,666
1506083791870,672
1506083791878,676
1506083791886,673
1506083791894,666
1506083791903,655
1506083791911,638
1506083791919,621
1506083791923,598
1506083791931,577
1506083791939,556
1506083791948,533
1506083791956,513
1506083791965,494
1506083791972,479
1506083791981,466
1506083791988,454
1506083791997,447
1506083792005,438
1506083792013,434
1506083792021,431
1506083792030,428
1506083792038,430
1506083792046,431
1506083792054,435
1506083792062,441
1506083792070,446
1506083792078,456
1506083792084,463
1506083792092,473
1506083792100,482
1506083792108,490
1506083792116,499
1506083792125,506
1506083792133,512
1506083792141,519
1506083792149,523
1506083792158,527
1506083792166,528
1506083792174,529
1506083792182,529
1506083792190,525
1506083792198,523
1506083792206,516
1506083792214,511
1506083792222,506
1506083792230,498
1506083792238,495
1506083792242,488
1506083792251,483
1506083792259,479
1506083792267,474
1506083792276,472
1506083792284,469
1506083792293,468
1506083792301,467
1506083792309,464
1506083792317,466
1506083792327,465
1506083792333,466
1506083792342,469
1506083792349,470
1506083792358,472
1506083792366,473
1506083792374,475
1506083792383,476
1506083792391,476
1506083792398,480
1506083792402,480
1506083792411,481
1506083792419,483
1506083792427,482
1506083792435,486
1506083792443,486
1506083792451,487
1506083792460,489
1506083792468,489
1506083792477,491
1506083792485,491
1506083792493,492
1506083792501,493
1506083792509,492
1506083792518,494
1506083792527,492
1506083792534,492
1506083792542,492
1506083792550,489
1506083792558,490
1506083792562,488
1506083792570,488
1506083792579,488
1506083792587,486
1506083792595,489
1506083792603,492
1506083792611,497
1506083792619,508
1506083792627,519
1506083792636,536
1506083792644,554
1506083792652,575
1506083792660,597
1506083792668,615
1506083792677,635
1506083792685,649
1506083792693,659
1506083792701,665
1506083792710,665
1506083792718,662
1506083792722,652
1506083792730,640
1506083792738,625
1506083792746,605
1506083792755,586
1506083792763,565
1506083792771,544
1506083792779,525
1506083792787,505
1506083792796,490
1506083792804,474
1506083792812,462
1506083792820,454
1506083792828,445
1506083792837,441
1506083792846,437
1506083792854,434
1506083792862,434
1506083792870,434
1506083792878,438
1506083792882,441
1506083792890,447
1506083792898,454
1506083792907,459
1506083792915,469
1506083792923,476
1506083792931,484
1506083792939,494
1506083792948,500
1506083792956,508
1506083792964,514
1506083792972,519
1506083792980,524
1506083792988,525
1506083792997,528
1506083793005,527
1506083793013,528
1506083793021,526
1506083793029,520
1506083793037,517
1506083793041,511
1506083793049,505
1506083793058,501
1506083793066,494
1506083793074,490
1506083793082,485
1506083793090,481
1506083793099,479
1506083793107,474
1506083793115,475
1506083793123,471
1506083793131,471
1506083793139,472
1506083793148,470
1506083793156,471
1506083793164,472
1506083793172,472
1506083793181,474
1506083793189,474
1506083793197,477
1506083793201,478
1506083793209,480
1506083793217,484
1506083793225,483
1506083793234,487
1506083793242,488
1506083793250,489
1506083793258,492
1506083793266,491
1506083793275,493
1506083793283,493
1506083793291,494
1506083793299,495
1506083793307,493
1506083793315,496
1506083793324,496
1506083793332,495
1506083793340,496
1506083793348,494
1506083793356,496
1506083793364,494
1506083793369,493
1506083793377,493
1506083793385,491
1506083793393,494
1506083793402,494
1506083793411,498
1506083793419,505
1506083793427,512
1506083793435,526
1506083793443,541
1506083793451,558
1506083793460,577
1506083793468,594
1506083793476,613
1506083793484,627
1506083793492,639
1506083793500,648
1506083793508,649
1506083793517,650
1506083793524,643
1506083793529,633
1506083793537,622
1506083793545,604
1506083793553,588
1506083793561,569
1506083793569,550
1506083793579,531
1506083793587,512
1506083793595,497
1506083793603,481
1506083793611,468
1506083793620,459
1506083793628,448
1506083793636,444
1506083793644,438
1506083793652,435
1506083793660,434
1506083793668,433
1506083793676,435
1506083793684,438
1506083793688,444
1506083793697,452
1506083793705,456
1506083793713,467
1506083793721,475
1506083793729,484
1506083793737,494
1506083793746,500
1506083793754,509
1506083793762,516
1506083793770,519
1506083793778,525
1506083793787,526
1506083793795,528
1506083793803,527
1506083793811,525
1506083793819,525
1506083793828,519
1506083793836,516
1506083793845,511
1506083793849,505
1506083793857,501
1506083793865,494
1506083793873,490
1506083793881,485
1506083793890,481
1506083793898,480
1506083793906,474
1506083793914,474
1506083793923,472
1506083793931,470
1506083793939,471
1506083793947,469
1506083793955,471
1506083793963,473
1506083793971,473
1506083793980,475
1506083793988,475
1506083793996,479
1506083794004,481
1506083794008,482
1506083794016,486
1506083794025,486
1506083794033,488
1506083794041,489
1506083794049,490
1506083794057,492
1506083794065,492
1506083794074,495
1506083794082,495
1506083794090,494
1506083794098,497
1506083794106,494
1506083794114,495
1506083794123,496
1506083794131,494
1506083794140,496
1506083794148,493
1506083794156,494
1506083794164,494
1506083794169,493
1506083794176,494
1506083794184,493
1506083794192,497
1506083794201,502
1506083794209,508
1506083794217,521
1506083794225,534
1506083794234,552
1506083794242,570
1506083794250,587
1506083794258,605
1506083794266,619
1506083794274,634
1506083794282,643
1506083794291,647
1506083794299,649
1506083794307,644
1506083794315,637
1506083794323,625
