time,value
1506084918368,499
1506084918377,497
1506084918385,495
1506084918393,496
1506084918401,492
1506084918409,491
1506084918417,490
1506084918426,487
1506084918433,488
1506084918442,488
1506084918450,489
1506084918459,492
1506084918463,495
1506084918471,501
1506084918479,506
1506084918487,514
1506084918496,524
1506084918503,531
1506084918512,541
1506084918520,546
1506084918528,550
1506084918536,554
1506084918544,554
1506084918552,553
1506084918561,549
1506084918569,544
1506084918577,539
1506084918585,532
1506084918593,526
1506084918601,520
1506084918610,512
1506084918618,506
1506084918622,495
1506084918631,487
1506084918639,479
1506084918647,471
1506084918656,466
1506084918663,461
1506084918671,457
1506084918680,453
1506084918688,450
1506084918696,445
1506084918704,438
1506084918712,434
1506084918720,430
1506084918728,428
1506084918738,429
1506084918746,429
1506084918754,432
1506084918762,437
1506084918770,443
1506084918778,451
1506084918783,457
1506084918791,466
1506084918799,473
1506084918807,479
1506084918815,485
1506084918824,488
1506084918832,490
1506084918840,492
1506084918848,492
1506084918856,494
1506084918864,494
1506084918872,496
1506084918880,496
1506084918889,497
1506084918897,498
1506084918905,497
1506084918913,497
1506084918921,495
1506084918930,493
1506084918938,494
1506084918946,493
1506084918950,494
1506084918959,495
1506084918966,495
1506084918975,496
1506084918983,496
1506084918991,497
1506084918999,497
1506084919008,498
1506084919016,501
1506084919024,502
1506084919032,506
1506084919040,511
1506084919048,515
1506084919057,522
1506084919064,530
1506084919073,539
1506084919081,548
1506084919089,555
1506084919097,564
1506084919105,568
1506084919110,575
1506084919118,577
1506084919126,577
1506084919134,579
1506084919142,577
1506084919150,580
1506084919159,578
1506084919167,574
1506084919175,568
1506084919183,560
1506084919191,557
1506084919200,546
1506084919208,540
1506084919216,535
1506084919224,525
1506084919232,517
1506084919240,513
1506084919249,509
1506084919257,507
1506084919265,502
1506084919269,500
1506084919277,497
1506084919286,495
1506084919294,490
1506084919302,484
1506084919310,483
1506084919319,483
1506084919327,483
1506084919335,487
1506084919343,488
1506084919351,492
1506084919359,497
1506084919367,501
1506084919376,506
1506084919384,508
1506084919392,512
1506084919400,515
1506084919408,516
1506084919417,520
1506084919425,519
1506084919429,519
1506084919437,518
1506084919445,518
1506084919454,517
1506084919462,513
1506084919470,511
1506084919478,507
1506084919487,504
1506084919494,502
1506084919502,500
1506084919511,503
1506084919519,505
1506084919527,505
1506084919536,504
1506084919543,503
1506084919552,505
1506084919560,507
1506084919568,509
1506084919576,511
1506084919585,508
1506084919589,506
1506084919597,501
1506084919606,497
1506084919614,497
1506084919622,501
1506084919630,508
1506084919638,516
1506084919646,523
1506084919655,534
1506084919663,544
1506084919671,554
1506084919679,563
1506084919687,573
1506084919696,581
1506084919703,584
1506084919712,587
1506084919720,584
1506084919728,579
1506084919736,575
1506084919744,568
1506084919748,562
1506084919757,556
1506084919765,546
1506084919773,538
1506084919781,532
1506084919789,525
1506084919797,522
1506084919806,517
1506084919815,513
1506084919823,504
1506084919830,503
1506084919839,505
1506084919847,507
1506084919855,510
1506084919863,510
1506084919871,516
1506084919879,519
1506084919888,521
1506084919897,527
1506084919904,531
1506084919909,538
1506084919917,545
1506084919925,549
1506084919933,553
1506084919941,552
1506084919949,553
1506084919958,549
1506084919966,542
1506084919974,536
1506084919982,528
1506084919990,522
1506084919999,514
1506084920007,505
1506084920015,505
1506084920023,498
1506084920031,494
1506084920039,493
1506084920047,485
1506084920056,483
1506084920063,484
1506084920068,486
1506084920076,490
1506084920084,489
1506084920093,487
1506084920101,486
1506084920110,483
1506084920118,480
1506084920126,478
1506084920134,478
1506084920142,476
1506084920150,476
1506084920158,476
1506084920166,477
1506084920175,483
1506084920183,486
1506084920191,492
1506084920199,497
1506084920207,501
1506084920216,508
1506084920223,516
1506084920228,526
1506084920237,534
1506084920245,541
1506084920253,548
1506084920261,553
1506084920269,557
1506084920278,557
1506084920286,555
1506084920294,553
1506084920302,546
1506084920310,540
1506084920318,533
1506084920327,523
1506084920334,515
1506084920342,506
1506084920351,498
1506084920360,489
1506084920368,479
1506084920376,473
1506084920383,466
1506084920392,463
1506084920396,462
1506084920404,459
1506084920412,461
1506084920421,460
1506084920429,463
1506084920437,466
1506084920445,470
1506084920454,478
1506084920462,482
1506084920470,489
1506084920478,496
1506084920486,501
1506084920494,507
1506084920503,511
1506084920511,513
1506084920519,517
1506084920527,518
1506084920535,522
1506084920544,522
1506084920552,524
1506084920556,526
1506084920564,523
1506084920572,524
1506084920580,522
1506084920588,521
1506084920597,519
1506084920605,517
1506084920613,515
1506084920621,513
1506084920629,510
1506084920638,507
1506084920646,506
1506084920654,504
1506084920662,500
1506084920670,498
1506084920680,496
1506084920687,492
1506084920695,493
1506084920703,491
1506084920711,489
1506084920716,490
1506084920724,488
1506084920732,490
1506084920740,490
1506084920748,494
1506084920756,497
1506084920765,500
1506084920773,507
1506084920781,512
1506084920789,520
1506084920797,528
1506084920805,536
1506084920813,543
1506084920821,548
1506084920830,554
1506084920838,556
1506084920846,556
1506084920854,556
1506084920862,550
1506084920870,545
1506084920874,539
1506084920883,529
1506084920891,522
1506084920899,513
1506084920907,506
1506084920916,499
1506084920924,492
1506084920932,486
1506084920940,480
1506084920948,477
1506084920957,474
1506084920965,471
1506084920973,471
1506084920981,470
1506084920989,471
1506084920998,474
1506084921006,474
1506084921014,478
1506084921022,481
1506084921031,484
1506084921035,488
1506084921043,491
1506084921051,497
1506084921060,500
1506084921068,502
1506084921076,505
1506084921084,505
1506084921092,508
1506084921100,509
1506084921109,509
1506084921117,511
1506084921125,510
1506084921133,510
1506084921141,508
1506084921149,508
1506084921158,507
1506084921166,505
1506084921174,505
1506084921182,502
1506084921190,500
1506084921194,499
1506084921202,496
1506084921211,496
1506084921219,493
1506084921228,492
1506084921236,490
1506084921244,488
1506084921252,489
1506084921260,487
1506084921268,488
1506084921276,487
1506084921284,485
1506084921292,488
1506084921301,489
1506084921309,491
1506084921317,497
1506084921325,502
1506084921333,510
1506084921341,516
1506084921349,524
1506084921354,533
1506084921362,540
1506084921370,547
1506084921378,550
1506084921387,553
1506084921395,554
1506084921403,551
1506084921411,549
1506084921419,544
1506084921428,539
1506084921436,533
1506084921444,523
1506084921452,517
1506084921460,509
1506084921469,503
1506084921477,496
1506084921485,488
1506084921493,484
1506084921501,479
1506084921509,474
1506084921513,472
1506084921522,469
1506084921530,469
1506084921538,467
1506084921547,469
1506084921555,471
1506084921564,472
1506084921572,477
1506084921580,478
1506084921588,481
1506084921597,485
1506084921605,488
1506084921613,492
1506084921621,495
1506084921629,498
1506084921638,500
1506084921646,501
1506084921654,504
1506084921662,503
1506084921670,505
1506084921674,506
1506084921682,503
1506084921690,504
1506084921699,502
1506084921707,500
1506084921715,499
1506084921723,495
1506084921731,494
1506084921739,492
1506084921748,489
1506084921756,488
1506084921764,486
1506084921772,487
1506084921781,484
1506084921789,483
1506084921797,483
1506084921805,482
1506084921813,483
1506084921821,484
1506084921829,485
1506084921834,489
1506084921842,492
1506084921850,499
1506084921858,504
1506084921866,511
1506084921875,520
1506084921883,526
1506084921891,535
1506084921899,541
1506084921907,546
1506084921915,550
1506084921923,551
1506084921932,551
1506084921940,548
1506084921948,544
1506084921956,539
1506084921965,531
1506084921973,527
1506084921981,519
1506084921989,512
1506084921993,507
1506084922002,499
1506084922011,495
1506084922018,489
1506084922026,483
1506084922035,480
1506084922043,475
1506084922051,473
1506084922059,471
1506084922067,470
1506084922076,473
1506084922083,474
1506084922091,476
1506084922100,477
1506084922108,479
1506084922116,482
1506084922124,484
1506084922133,488
1506084922141,491
1506084922149,494
1506084922154,498
1506084922162,499
1506084922170,501
1506084922178,503
1506084922186,502
1506084922194,503
1506084922202,500
1506084922210,500
1506084922219,498
1506084922226,495
1506084922234,494
1506084922242,491
1506084922251,490
1506084922259,488
1506084922267,486
1506084922276,485
1506084922284,483
1506084922293,483
1506084922301,482
1506084922309,481
1506084922317,482
1506084922321,480
1506084922329,481
1506084922338,480
1506084922346,480
1506084922355,484
1506084922362,484
1506084922370,488
1506084922378,493
1506084922386,499
1506084922395,508
1506084922402,515
1506084922411,524
1506084922419,533
1506084922427,539
1506084922436,545
1506084922444,549
1506084922452,553
1506084922460,554
1506084922468,554
1506084922476,553
1506084922480,549
1506084922488,546
1506084922498,541
1506084922506,535
1506084922514,529
1506084922523,521
1506084922531,515
1506084922538,508
1506084922547,501
1506084922555,495
1506084922563,487
1506084922571,483
1506084922579,478
1506084922587,474
1506084922596,474
1506084922603,471
1506084922612,471
1506084922620,472
1506084922628,473
1506084922636,476
1506084922640,477
1506084922648,481
1506084922656,484
1506084922665,488
1506084922673,492
1506084922682,494
1506084922690,498
1506084922698,500
1506084922707,501
1506084922715,504
1506084922722,503
1506084922731,504
1506084922739,503
1506084922747,502
1506084922756,501
1506084922764,499
1506084922772,499
1506084922780,497
1506084922788,493
1506084922796,494
1506084922800,491
1506084922808,490
1506084922817,488
1506084922825,486
1506084922833,486
1506084922841,484
1506084922849,484
1506084922858,482
1506084922866,480
1506084922874,481
1506084922883,480
1506084922891,481
1506084922899,483
1506084922907,485
1506084922915,491
1506084922923,497
1506084922931,505
1506084922939,513
1506084922947,522
1506084922955,531
1506084922959,539
1506084922968,546
1506084922976,550
1506084922984,553
1506084922992,556
1506084923001,554
1506084923008,552
1506084923017,548
1506084923025,542
1506084923033,536
1506084923041,529
1506084923049,522
1506084923058,515
1506084923066,508
1506084923076,502
1506084923083,495
1506084923091,491
1506084923099,485
1506084923107,480
1506084923116,479
1506084923120,475
1506084923128,474
1506084923136,474
1506084923144,473
1506084923153,475
1506084923161,476
1506084923169,479
1506084923177,482
1506084923185,484
1506084923193,489
1506084923201,491
1506084923210,494
1506084923218,497
1506084923226,498
1506084923235,499
1506084923243,500
1506084923252,501
1506084923260,502
1506084923268,501
1506084923276,503
1506084923280,502
1506084923288,501
1506084923296,499
1506084923304,497
1506084923312,497
1506084923320,495
1506084923328,495
1506084923337,494
1506084923345,492
1506084923353,492
1506084923361,490
1506084923369,491
1506084923378,490
1506084923386,489
1506084923394,490
1506084923402,488
1506084923410,488
1506084923419,488
1506084923427,488
1506084923435,490
1506084923439,491
1506084923447,495
1506084923456,499
1506084923463,505
1506084923472,513
1506084923480,521
1506084923488,531
1506084923496,540
1506084923504,547
1506084923512,555
1506084923521,558
1506084923529,561
1506084923538,562
1506084923546,560
1506084923554,557
1506084923562,551
1506084923570,546
1506084923578,539
1506084923587,530
1506084923595,523
1506084923599,514
1506084923607,507
1506084923615,500
1506084923623,492
1506084923632,487
1506084923640,482
1506084923648,478
1506084923656,474
1506084923664,471
1506084923673,470
1506084923681,469
1506084923689,470
1506084923697,473
1506084923706,474
1506084923714,478
1506084923722,486
1506084923730,493
1506084923738,496
1506084923746,500
1506084923754,504
1506084923759,507
1506084923767,509
1506084923775,512
1506084923783,510
1506084923791,510
1506084923799,506
1506084923808,506
1506084923816,507
1506084923824,505
1506084923832,505
1506084923840,502
1506084923848,500
1506084923857,499
1506084923865,492
1506084923873,487
1506084923881,482
1506084923889,480
1506084923897,479
1506084923906,477
1506084923914,477
1506084923918,477
1506084923926,482
1506084923934,484
1506084923943,485
1506084923951,487
1506084923960,490
1506084923968,492
1506084923976,496
1506084923984,498
1506084923992,501
1506084924000,503
1506084924008,510
1506084924017,519
1506084924025,526
1506084924033,535
1506084924041,542
1506084924049,550
1506084924058,556
1506084924066,558
1506084924074,561
1506084924082,562
1506084924086,562
1506084924094,559
1506084924103,554
1506084924110,551
1506084924119,543
1506084924127,537
1506084924136,533
1506084924144,523
1506084924152,518
1506084924160,507
1506084924168,497
1506084924176,491
1506084924184,483
1506084924192,478
1506084924200,473
1506084924209,471
1506084924218,469
1506084924226,469
1506084924234,471
1506084924242,471
1506084924246,474
1506084924254,477
1506084924263,480
1506084924271,485
1506084924279,488
1506084924287,493
1506084924296,497
1506084924303,499
1506084924311,503
1506084924319,503
1506084924327,505
1506084924336,507
1506084924344,507
1506084924352,510
1506084924360,510
1506084924368,512
1506084924377,514
1506084924385,513
1506084924393,513
1506084924401,513
1506084924406,513
1506084924414,512
1506084924422,509
1506084924430,510
1506084924439,507
1506084924447,507
1506084924455,508
1506084924463,506
1506084924471,507
1506084924479,506
1506084924487,506
1506084924496,507
1506084924504,505
1506084924512,506
1506084924521,506
1506084924529,509
1506084924537,511
1506084924545,512
1506084924553,517
1506084924561,521
1506084924565,526
1506084924573,531
1506084924582,536
1506084924590,542
1506084924598,548
1506084924606,553
1506084924614,557
1506084924622,559
1506084924631,562
1506084924639,561
1506084924647,559
1506084924656,557
1506084924664,549
1506084924672,544
1506084924680,536
1506084924689,527
1506084924697,520
1506084924705,511
1506084924713,505
1506084924721,496
1506084924725,490
1506084924733,484
1506084924741,476
1506084924749,474
1506084924758,471
1506084924766,469
1506084924774,471
1506084924782,472
1506084924790,475
1506084924798,477
1506084924807,480
1506084924815,485
1506084924823,489
1506084924831,494
1506084924840,496
1506084924847,500
1506084924856,504
1506084924864,505
1506084924872,509
1506084924880,511
1506084924885,513
1506084924894,516
1506084924902,518
1506084924910,521
1506084924918,521
1506084924926,522
1506084924934,522
1506084924942,518
1506084924950,517
1506084924958,514
1506084924966,510
1506084924975,508
1506084924983,504
1506084924991,503
1506084924999,501
1506084925007,500
1506084925016,500
1506084925023,498
1506084925032,498
1506084925040,497
1506084925045,498
1506084925053,499
1506084925061,500
1506084925069,505
1506084925078,511
1506084925086,517
1506084925094,525
1506084925102,533
1506084925110,544
1506084925118,553
1506084925126,561
1506084925135,568
1506084925143,572
1506084925151,575
1506084925159,574
1506084925167,572
1506084925176,568
1506084925184,562
1506084925191,558
1506084925199,551
1506084925204,545
1506084925212,540
1506084925221,531
1506084925229,526
1506084925238,518
1506084925246,511
1506084925254,506
1506084925262,499
1506084925270,495
1506084925278,491
1506084925286,488
1506084925294,486
1506084925302,483
1506084925310,484
1506084925319,483
1506084925327,485
1506084925336,489
1506084925344,490
1506084925352,496
1506084925360,500
1506084925364,504
1506084925372,510
1506084925380,513
1506084925388,518
1506084925397,521
1506084925405,524
1506084925413,527
1506084925421,529
1506084925430,533
1506084925438,534
1506084925446,535
1506084925455,537
1506084925462,537
1506084925470,538
1506084925479,538
1506084925487,538
1506084925495,537
1506084925503,535
1506084925511,534
1506084925519,529
1506084925523,525
1506084925532,519
1506084925540,511
1506084925549,506
1506084925557,499
1506084925565,494
1506084925573,491
1506084925582,488
1506084925590,489
1506084925598,490
1506084925605,493
1506084925613,499
1506084925622,506
1506084925630,515
1506084925639,525
1506084925647,537
1506084925655,550
1506084925663,560
1506084925671,571
1506084925680,580
1506084925684,587
1506084925692,591
1506084925700,594
1506084925708,596
1506084925717,595
1506084925724,594
1506084925733,591
1506084925741,584
1506084925749,578
1506084925759,571
1506084925767,560
1506084925774,551
1506084925782,539
1506084925790,527
1506084925798,517
1506084925806,506
1506084925815,498
1506084925823,489
1506084925831,484
1506084925840,479
1506084925847,474
1506084925851,474
1506084925859,470
1506084925868,470
1506084925876,470
1506084925884,471
1506084925892,472
1506084925900,473
1506084925908,474
1506084925916,474
1506084925925,474
1506084925933,475
1506084925941,474
1506084925950,477
1506084925957,478
1506084925966,479
1506084925974,482
1506084925982,483
1506084925990,486
1506084925998,488
1506084926006,489
1506084926011,491
1506084926019,491
1506084926027,494
1506084926036,494
1506084926043,494
1506084926052,496
1506084926060,496
1506084926068,498
1506084926076,497
1506084926084,497
1506084926092,498
1506084926101,495
1506084926109,494
1506084926117,489
1506084926125,485
1506084926134,482
1506084926143,479
1506084926150,480
1506084926158,481
1506084926166,483
1506084926171,488
1506084926179,491
1506084926187,496
1506084926195,499
1506084926203,501
1506084926211,504
1506084926219,504
1506084926229,505
1506084926237,504
1506084926245,502
1506084926253,501
1506084926261,495
1506084926269,490
1506084926278,485
1506084926286,479
1506084926294,475
1506084926302,471
1506084926311,468
1506084926319,465
1506084926326,464
1506084926331,464
1506084926339,461
1506084926347,463
1506084926355,464
1506084926363,465
1506084926372,468
1506084926380,471
1506084926388,475
1506084926396,478
1506084926404,482
1506084926412,488
1506084926420,491
1506084926429,496
1506084926437,499
1506084926446,503
1506084926454,506
1506084926462,503
1506084926471,503
1506084926479,500
1506084926486,499
1506084926491,494
1506084926499,488
1506084926507,484
1506084926515,478
1506084926523,472
1506084926532,467
1506084926540,459
1506084926548,455
1506084926556,451
1506084926564,446
1506084926572,443
1506084926580,440
1506084926589,438
1506084926597,437
1506084926605,437
1506084926613,438
1506084926621,439
1506084926630,442
1506084926638,445
1506084926646,448
1506084926650,453
1506084926659,456
1506084926667,459
1506084926675,464
1506084926683,467
1506084926691,472
1506084926699,476
1506084926708,480
1506084926716,483
1506084926724,487
1506084926732,492
1506084926740,495
1506084926748,499
1506084926757,503
1506084926764,505
1506084926773,510
1506084926781,514
1506084926789,517
1506084926797,522
1506084926805,524
1506084926809,528
1506084926818,531
1506084926826,536
1506084926834,538
1506084926842,538
1506084926851,540
1506084926859,543
1506084926867,542
1506084926875,540
1506084926883,538
1506084926892,538
1506084926899,535
1506084926908,533
1506084926917,528
1506084926925,523
1506084926933,521
1506084926941,514
1506084926949,509
1506084926957,500
1506084926965,490
1506084926970,484
1506084926978,477
1506084926986,473
1506084926994,470
1506084927002,469
1506084927010,472
1506084927019,474
1506084927027,480
1506084927035,487
1506084927043,490
1506084927051,497
1506084927059,499
1506084927068,504
1506084927076,511
1506084927084,515
1506084927092,520
1506084927100,524
1506084927108,529
1506084927116,537
1506084927124,542
1506084927130,551
1506084927137,554
1506084927146,560
1506084927154,559
1506084927162,555
1506084927170,553
1506084927178,551
1506084927186,550
1506084927195,544
1506084927203,538
1506084927211,533
1506084927219,525
1506084927227,520
1506084927236,513
1506084927244,507
1506084927252,503
1506084927260,497
1506084927268,489
1506084927276,485
1506084927285,479
1506084927288,476
1506084927297,473
1506084927306,475
1506084927314,474
1506084927322,474
1506084927330,477
1506084927338,480
1506084927346,487
1506084927355,497
1506084927363,509
1506084927371,525
1506084927379,538
1506084927387,555
1506084927396,569
1506084927404,581
1506084927412,592
1506084927420,598
1506084927428,600
1506084927436,601
1506084927445,595
1506084927448,588
1506084927457,576
1506084927465,564
1506084927473,550
1506084927482,536
1506084927490,525
1506084927498,514
1506084927506,505
1506084927515,499
1506084927522,492
1506084927531,488
1506084927539,486
1506084927547,485
1506084927556,486
1506084927564,488
1506084927572,492
1506084927580,495
1506084927588,501
1506084927597,510
1506084927604,518
1506084927612,530
1506084927617,542
1506084927625,556
1506084927633,571
1506084927641,585
1506084927649,600
1506084927657,612
1506084927665,624
1506084927674,634
1506084927682,639
1506084927690,643
1506084927698,643
1506084927706,641
1506084927716,638
1506084927724,629
1506084927732,621
1506084927740,609
1506084927748,598
1506084927756,587
1506084927764,575
1506084927772,564
1506084927777,552
1506084927785,542
1506084927793,531
1506084927801,520
1506084927809,514
1506084927817,504
1506084927825,496
1506084927834,491
1506084927842,485
1506084927850,482
1506084927858,480
1506084927866,481
1506084927875,483
1506084927883,485
1506084927891,491
1506084927899,496
1506084927907,501
1506084927916,506
1506084927924,509
1506084927932,513
1506084927937,516
1506084927944,517
1506084927953,518
1506084927961,517
1506084927969,518
1506084927977,517
1506084927985,516
1506084927993,516
1506084928002,514
1506084928010,515
1506084928018,512
1506084928026,511
1506084928034,512
1506084928042,511
1506084928050,512
1506084928059,512
1506084928067,513
1506084928076,513
1506084928083,512
1506084928091,513
1506084928096,511
1506084928104,511
1506084928112,511
1506084928120,510
1506084928128,512
1506084928137,511
1506084928145,510
1506084928153,509
1506084928161,506
1506084928169,506
1506084928177,504
1506084928186,503
1506084928194,503
1506084928202,500
1506084928210,499
1506084928219,496
1506084928226,493
1506084928235,491
1506084928243,488
1506084928251,487
1506084928255,485
1506084928263,484
1506084928271,484
1506084928280,481
1506084928289,481
1506084928297,478
1506084928304,474
1506084928313,471
1506084928322,465
1506084928330,463
1506084928338,460
1506084928346,460
1506084928354,462
1506084928363,465
1506084928371,472
1506084928379,477
1506084928387,484
1506084928395,491
1506084928403,496
1506084928411,505
1506084928416,511
1506084928424,518
1506084928432,524
1506084928440,527
1506084928448,529
1506084928457,528
1506084928466,527
1506084928474,523
1506084928481,517
1506084928489,512
1506084928497,507
1506084928506,502
1506084928514,500
1506084928522,495
1506084928530,492
1506084928538,488
1506084928547,483
1506084928555,481
1506084928563,478
1506084928571,477
1506084928576,476
1506084928583,475
1506084928591,475
1506084928600,474
1506084928608,476
1506084928616,477
1506084928624,479
1506084928632,483
1506084928640,486
1506084928648,490
1506084928657,494
1506084928666,499
1506084928674,504
1506084928682,507
1506084928690,515
1506084928698,518
1506084928706,521
1506084928714,525
1506084928722,526
1506084928730,529
1506084928735,529
1506084928743,528
1506084928751,527
1506084928759,523
1506084928767,521
1506084928776,516
1506084928784,511
1506084928792,507
1506084928800,501
1506084928808,496
1506084928818,491
1506084928825,487
1506084928833,485
1506084928842,482
1506084928849,481
1506084928858,480
1506084928866,480
1506084928874,480
1506084928882,480
1506084928890,481
1506084928894,480
1506084928902,480
1506084928910,481
1506084928919,481
1506084928927,482
1506084928935,482
1506084928943,481
1506084928951,482
1506084928960,482
1506084928968,484
1506084928976,484
1506084928984,487
1506084928992,490
1506084929001,491
1506084929009,496
1506084929017,498
1506084929025,500
1506084929033,502
1506084929041,502
1506084929049,502
1506084929054,502
1506084929062,502
1506084929070,504
1506084929078,506
1506084929086,511
1506084929095,516
1506084929103,521
1506084929111,531
1506084929119,540
1506084929127,549
1506084929136,558
1506084929144,565
1506084929152,573
1506084929160,578
1506084929168,582
1506084929176,582
1506084929186,580
1506084929194,580
1506084929202,573
1506084929210,567
1506084929214,559
1506084929223,555
1506084929231,546
1506084929239,536
1506084929247,527
1506084929255,518
1506084929263,511
1506084929271,506
1506084929279,499
1506084929288,496
1506084929296,494
1506084929304,490
1506084929312,489
1506084929320,487
1506084929329,487
1506084929337,487
1506084929345,487
1506084929353,490
1506084929362,490
1506084929369,494
1506084929374,495
1506084929382,498
1506084929390,501
1506084929398,501
1506084929407,503
1506084929415,503
1506084929423,504
1506084929431,505
1506084929439,504
1506084929447,505
1506084929456,505
1506084929464,504
1506084929472,505
1506084929480,502
1506084929488,502
1506084929497,500
1506084929504,497
1506084929513,496
1506084929521,490
1506084929529,487
1506084929537,483
1506084929541,481
1506084929550,481
1506084929558,479
1506084929566,481
1506084929574,481
1506084929583,481
1506084929591,484
1506084929599,484
1506084929607,487
1506084929616,490
1506084929623,491
1506084929631,495
1506084929640,496
1506084929648,499
1506084929656,501
1506084929664,502
1506084929673,505
1506084929681,503
1506084929689,504
1506084929697,503
1506084929701,502
1506084929709,502
1506084929718,500
1506084929726,500
1506084929734,498
1506084929742,498
1506084929750,499
1506084929759,499
1506084929766,500
1506084929775,501
1506084929783,501
1506084929791,505
1506084929800,506
1506084929808,509
1506084929816,514
1506084929824,518
1506084929832,526
1506084929840,533
1506084929848,542
1506084929856,550
1506084929860,556
1506084929868,563
1506084929877,567
1506084929885,572
1506084929893,574
1506084929901,573
1506084929909,574
1506084929918,570
1506084929926,566
1506084929934,561
1506084929942,555
1506084929951,551
1506084929960,544
1506084929968,538
1506084929976,530
1506084929984,523
1506084929993,516
1506084930001,507
1506084930009,501
1506084930017,495
1506084930021,489
1506084930029,486
1506084930037,482
1506084930046,480
1506084930054,479
1506084930062,479
1506084930070,481
1506084930078,482
1506084930086,487
1506084930094,491
1506084930103,493
1506084930111,498
1506084930119,500
1506084930127,503
1506084930135,505
1506084930144,507
1506084930152,510
1506084930160,510
1506084930168,513
1506084930176,513
1506084930181,512
1506084930189,513
1506084930197,511
1506084930205,510
1506084930213,510
1506084930221,509
1506084930230,509
1506084930238,509
1506084930246,511
1506084930254,511
1506084930262,512
1506084930271,513
1506084930279,510
1506084930287,510
1506084930295,508
1506084930303,506
1506084930311,507
1506084930320,505
1506084930328,506
1506084930336,506
1506084930341,505
1506084930349,506
1506084930357,505
1506084930365,508
1506084930373,508
1506084930381,509
1506084930389,513
1506084930398,515
1506084930406,518
1506084930414,522
1506084930422,527
1506084930430,537
1506084930438,541
1506084930447,542
1506084930455,540
1506084930463,541
1506084930471,545
1506084930479,547
1506084930488,553
1506084930496,560
1506084930500,566
1506084930508,574
1506084930516,582
1506084930524,590
1506084930532,603
1506084930541,612
1506084930549,618
1506084930557,618
1506084930565,619
1506084930573,618
1506084930582,615
1506084930590,613
1506084930598,606
1506084930606,598
1506084930614,584
1506084930622,569
1506084930631,558
1506084930639,544
1506084930647,534
1506084930655,523
1506084930659,512
1506084930667,507
1506084930676,499
1506084930684,494
1506084930692,489
1506084930700,484
1506084930708,482
1506084930717,480
1506084930725,481
1506084930733,479
1506084930741,476
1506084930749,475
1506084930757,472
1506084930766,473
1506084930774,472
1506084930782,473
1506084930790,475
1506084930799,478
1506084930807,481
1506084930815,486
1506084930820,488
1506084930827,492
1506084930836,498
1506084930844,502
1506084930852,503
1506084930860,504
1506084930868,507
1506084930876,508
1506084930884,510
1506084930893,509
1506084930901,507
1506084930909,507
1506084930917,505
1506084930926,502
1506084930935,499
1506084930943,496
1506084930951,495
1506084930959,491
1506084930967,491
1506084930976,490
1506084930980,488
1506084930988,491
1506084930996,492
1506084931005,494
1506084931012,497
1506084931021,496
1506084931029,498
1506084931037,498
1506084931045,498
1506084931053,499
1506084931061,499
1506084931069,501
1506084931077,500
1506084931085,501
1506084931094,502
1506084931102,501
1506084931110,502
1506084931118,501
1506084931127,501
1506084931134,502
1506084931138,501
1506084931147,503
1506084931156,504
1506084931164,505
1506084931172,509
1506084931180,512
1506084931189,519
1506084931197,524
1506084931205,529
1506084931214,536
1506084931221,541
1506084931229,548
1506084931238,551
1506084931246,554
1506084931254,556
1506084931262,556
1506084931270,556
1506084931278,555
1506084931286,553
1506084931294,550
1506084931302,546
1506084931307,543
1506084931315,536
1506084931323,532
1506084931332,526
1506084931341,519
1506084931348,515
1506084931357,509
1506084931365,510
1506084931373,509
1506084931381,505
1506084931389,501
1506084931397,496
1506084931405,490
1506084931413,487
1506084931421,483
1506084931429,483
1506084931439,481
1506084931447,481
1506084931455,483
1506084931462,483
1506084931467,486
1506084931475,488
1506084931483,491
1506084931491,494
1506084931499,495
1506084931507,497
1506084931516,497
1506084931524,499
1506084931532,500
1506084931540,499
1506084931550,501
1506084931557,502
1506084931565,501
1506084931573,502
1506084931582,502
1506084931590,503
1506084931598,503
1506084931606,504
1506084931614,504
1506084931622,503
1506084931626,504
1506084931635,503
1506084931643,502
1506084931651,501
1506084931660,498
1506084931667,498
1506084931676,496
1506084931684,496
1506084931692,496
1506084931701,496
1506084931709,496
1506084931717,495
1506084931725,495
1506084931734,496
1506084931741,493
1506084931749,496
1506084931758,494
1506084931765,494
1506084931774,494
1506084931781,493
1506084931786,494
1506084931794,495
1506084931802,495
1506084931810,495
1506084931819,494
1506084931827,495
1506084931835,493
1506084931843,493
1506084931851,494
1506084931859,492
1506084931867,493
1506084931876,493
1506084931885,494
1506084931893,496
1506084931901,499
1506084931909,502
1506084931918,505
1506084931926,515
1506084931934,523
1506084931942,529
1506084931946,534
1506084931954,536
1506084931963,537
1506084931971,540
1506084931979,540
1506084931987,543
1506084931995,542
1506084932003,544
1506084932012,543
1506084932020,540
1506084932028,539
1506084932036,536
1506084932044,532
1506084932052,529
1506084932061,523
1506084932069,520
1506084932077,515
1506084932086,510
1506084932094,507
1506084932101,504
1506084932106,502
1506084932114,498
1506084932122,496
1506084932131,494
1506084932139,492
1506084932147,492
1506084932155,492
1506084932163,490
1506084932172,492
1506084932180,490
1506084932188,490
1506084932196,490
1506084932204,490
1506084932212,492
1506084932221,490
1506084932229,491
1506084932237,491
1506084932245,491
1506084932254,493
1506084932262,491
1506084932265,493
1506084932274,492
1506084932282,492
1506084932290,492
1506084932298,491
1506084932306,493
1506084932315,491
1506084932323,491
1506084932331,490
1506084932339,487
1506084932347,488
1506084932356,487
1506084932364,485
1506084932372,485
1506084932380,484
1506084932389,483
1506084932397,484
1506084932405,484
1506084932413,486
1506084932421,486
1506084932425,486
1506084932433,486
1506084932441,485
1506084932450,486
1506084932458,485
1506084932466,486
1506084932474,485
1506084932482,485
1506084932491,485
1506084932499,484
1506084932507,484
1506084932515,484
1506084932523,485
1506084932532,485
1506084932540,484
1506084932548,486
1506084932556,486
1506084932564,487
1506084932572,489
1506084932580,489
1506084932585,491
1506084932594,494
1506084932602,497
1506084932610,502
1506084932618,505
1506084932626,511
1506084932634,514
1506084932642,519
1506084932651,523
1506084932659,525
1506084932667,528
1506084932675,529
1506084932683,529
1506084932692,529
1506084932700,528
1506084932708,526
1506084932716,523
1506084932724,521
1506084932732,518
1506084932741,513
1506084932745,512
1506084932753,509
1506084932761,506
1506084932770,505
1506084932778,502
1506084932786,500
1506084932794,498
1506084932802,497
1506084932810,496
1506084932818,494
1506084932826,495
1506084932835,492
1506084932843,493
1506084932851,494
1506084932859,492
1506084932867,494
1506084932876,494
1506084932884,494
1506084932892,495
1506084932900,495
1506084932904,496
1506084932912,495
1506084932920,496
1506084932928,498
1506084932937,496
1506084932945,497
1506084932954,497
1506084932962,495
1506084932970,496
1506084932978,494
1506084932986,494
1506084932994,494
1506084933003,493
1506084933011,492
1506084933019,491
1506084933027,492
1506084933036,491
1506084933044,490
1506084933052,491
1506084933060,489
1506084933064,490
1506084933072,490
1506084933080,489
1506084933089,491
1506084933097,491
1506084933105,492
1506084933113,492
1506084933121,493
1506084933129,496
1506084933137,495
1506084933145,496
1506084933154,496
1506084933163,497
1506084933171,498
1506084933179,497
1506084933187,498
1506084933195,497
1506084933203,495
1506084933212,495
1506084933219,493
1506084933224,495
1506084933232,495
1506084933240,493
1506084933248,495
1506084933256,493
1506084933265,494
1506084933273,496
1506084933281,496
1506084933289,499
1506084933298,500
1506084933306,503
1506084933314,507
1506084933322,510
1506084933330,515
1506084933338,518
1506084933347,522
1506084933354,524
1506084933363,525
1506084933371,526
1506084933379,525
1506084933387,524
1506084933391,522
1506084933400,519
1506084933408,517
1506084933416,515
1506084933424,512
1506084933432,508
1506084933440,505
1506084933449,503
1506084933457,499
1506084933465,497
1506084933473,495
1506084933481,493
1506084933490,493
1506084933498,491
1506084933506,492
1506084933514,491
1506084933522,491
1506084933531,493
1506084933539,493
1506084933546,495
1506084933551,494
1506084933559,493
1506084933568,495
1506084933576,495
1506084933584,496
1506084933592,498
1506084933600,497
1506084933608,499
1506084933616,499
1506084933624,500
1506084933633,500
1506084933641,500
1506084933649,501
1506084933657,499
1506084933665,499
1506084933674,499
1506084933682,498
1506084933690,498
1506084933698,496
1506084933706,497
1506084933710,497
1506084933719,496
1506084933727,497
1506084933735,494
1506084933743,495
1506084933751,494
1506084933759,492
1506084933768,492
1506084933776,491
1506084933785,489
1506084933793,488
1506084933801,487
1506084933809,487
1506084933818,485
1506084933826,485
1506084933834,485
1506084933842,485
1506084933850,488
1506084933859,488
1506084933867,489
1506084933871,490
1506084933879,490
1506084933887,491
1506084933896,491
1506084933904,492
1506084933912,493
1506084933920,493
1506084933928,494
1506084933936,493
1506084933944,494
1506084933953,495
1506084933961,493
1506084933969,493
1506084933977,491
1506084933985,490
1506084933994,491
1506084934002,490
1506084934010,491
1506084934018,490
1506084934026,493
1506084934031,495
1506084934039,497
1506084934047,503
1506084934055,505
1506084934063,509
1506084934072,512
1506084934080,514
1506084934088,516
1506084934096,516
1506084934104,516
1506084934112,517
1506084934120,516
1506084934129,516
1506084934137,514
1506084934145,512
1506084934154,512
1506084934161,510
1506084934170,511
1506084934178,510
1506084934186,508
1506084934190,509
1506084934198,509
1506084934207,509
1506084934215,508
1506084934224,509
1506084934231,511
1506084934240,509
1506084934248,509
1506084934256,508
1506084934264,508
1506084934272,508
1506084934280,507
1506084934289,506
1506084934297,503
1506084934305,501
1506084934313,498
1506084934321,496
1506084934330,495
1506084934338,492
1506084934346,491
1506084934350,491
1506084934358,490
1506084934366,491
1506084934374,490
1506084934383,489
1506084934391,490
1506084934400,490
1506084934407,490
1506084934416,490
1506084934423,491
1506084934432,492
1506084934440,493
1506084934448,496
1506084934456,495
1506084934464,496
1506084934473,496
1506084934482,495
1506084934490,495
1506084934498,495
1506084934506,496
1506084934510,495
1506084934518,494
1506084934526,496
1506084934534,494
1506084934543,495
1506084934551,495
1506084934559,494
1506084934567,495
1506084934576,494
1506084934583,494
1506084934592,495
1506084934599,495
1506084934608,496
1506084934617,496
1506084934625,499
1506084934633,499
1506084934641,498
1506084934649,499
1506084934657,498
1506084934665,499
1506084934669,498
1506084934678,496
1506084934686,495
1506084934694,494
1506084934702,493
1506084934710,493
1506084934718,491
1506084934727,491
1506084934735,490
1506084934744,492
1506084934752,493
1506084934760,495
1506084934768,499
1506084934778,500
1506084934785,502
1506084934793,505
1506084934801,507
1506084934809,509
1506084934817,510
1506084934825,512
1506084934829,512
1506084934838,512
1506084934846,513
1506084934854,512
1506084934862,512
1506084934870,512
1506084934879,509
1506084934886,507
1506084934895,503
1506084934903,501
1506084934911,500
1506084934919,497
1506084934927,497
1506084934936,495
1506084934944,494
1506084934952,494
1506084934961,493
1506084934968,494
1506084934977,493
1506084934985,493
1506084934989,492
1506084934997,491
1506084935005,492
1506084935013,492
1506084935021,493
1506084935029,495
1506084935038,497
1506084935046,499
1506084935054,501
1506084935062,504
1506084935070,507
1506084935079,508
1506084935087,510
1506084935095,511
1506084935103,512
1506084935112,512
1506084935119,511
1506084935128,511
1506084935137,510
1506084935145,508
1506084935149,508
1506084935158,506
1506084935165,507
1506084935174,505
1506084935182,504
1506084935190,504
1506084935198,502
1506084935206,502
1506084935214,502
1506084935222,502
1506084935231,502
1506084935239,502
1506084935247,502
1506084935255,502
1506084935263,503
1506084935271,504
1506084935279,504
1506084935288,504
1506084935297,503
1506084935305,503
1506084935309,503
1506084935317,502
1506084935325,503
1506084935333,502
1506084935341,501
1506084935349,501
1506084935358,500
1506084935366,499
1506084935374,498
1506084935382,498
1506084935391,498
1506084935398,495
1506084935407,497
1506084935415,496
1506084935423,496
1506084935431,497
1506084935439,496
1506084935447,497
1506084935456,498
1506084935464,500
1506084935469,504
1506084935476,505
1506084935485,510
1506084935493,511
1506084935501,514
1506084935509,518
1506084935517,519
1506084935525,520
1506084935534,520
1506084935542,518
1506084935550,518
1506084935558,515
1506084935566,513
1506084935574,509
1506084935582,507
1506084935591,505
1506084935599,502
1506084935608,500
1506084935616,498
1506084935624,498
1506084935632,497
1506084935637,497
1506084935645,496
1506084935653,496
1506084935661,497
1506084935669,497
1506084935677,495
1506084935685,497
1506084935693,497
1506084935702,498
1506084935710,499
1506084935718,497
1506084935726,499
1506084935734,499
1506084935742,499
1506084935751,500
1506084935759,499
1506084935767,501
1506084935775,500
1506084935783,500
1506084935791,502
1506084935795,500
1506084935804,500
1506084935812,500
1506084935820,499
1506084935828,499
1506084935836,498
1506084935845,498
1506084935853,497
1506084935861,497
1506084935869,496
1506084935877,496
1506084935885,497
1506084935894,497
1506084935902,497
1506084935910,497
1506084935919,496
1506084935927,496
1506084935936,496
1506084935944,495
1506084935952,495
1506084935956,495
1506084935964,495
1506084935972,495
1506084935980,495
1506084935988,498
1506084935997,496
1506084936005,496
1506084936013,496
1506084936021,494
1506084936029,495
1506084936038,493
1506084936046,494
1506084936054,493
1506084936062,493
1506084936070,494
1506084936078,492
1506084936087,493
1506084936095,493
1506084936103,495
1506084936111,496
1506084936115,496
1506084936123,500
1506084936131,503
1506084936140,505
1506084936148,508
1506084936156,509
1506084936164,511
1506084936172,511
1506084936180,512
1506084936189,511
1506084936197,510
1506084936205,510
1506084936213,508
1506084936222,505
1506084936230,504
1506084936238,502
1506084936247,501
1506084936255,499
1506084936263,498
1506084936271,497
1506084936276,496
1506084936284,496
1506084936292,495
1506084936300,496
1506084936308,497
1506084936316,495
1506084936324,496
1506084936332,496
1506084936341,495
1506084936349,496
1506084936357,496
1506084936365,496
1506084936373,497
1506084936382,497
1506084936390,499
1506084936398,497
1506084936406,499
1506084936414,499
1506084936422,498
1506084936430,500
1506084936435,498
1506084936443,498
1506084936451,498
1506084936459,496
1506084936468,496
1506084936476,494
1506084936484,495
1506084936492,495
1506084936501,495
1506084936509,496
1506084936517,495
1506084936525,495
1506084936533,495
1506084936541,495
1506084936550,495
1506084936558,494
1506084936566,494
1506084936574,493
1506084936582,493
1506084936590,494
1506084936595,492
1506084936602,494
1506084936610,494
1506084936619,494
1506084936628,494
1506084936636,492
1506084936644,492
1506084936652,493
1506084936660,492
1506084936668,493
1506084936676,492
1506084936684,493
1506084936693,493
1506084936701,493
1506084936710,496
1506084936718,497
1506084936726,498
1506084936734,500
1506084936742,501
1506084936750,504
1506084936754,506
1506084936762,510
1506084936771,512
1506084936779,515
1506084936787,517
1506084936795,517
1506084936803,519
1506084936812,520
1506084936820,520
1506084936828,520
1506084936836,518
1506084936844,516
1506084936853,513
1506084936861,510
1506084936869,508
1506084936877,506
1506084936885,504
1506084936893,502
1506084936902,500
1506084936910,501
1506084936914,500
1506084936922,500
1506084936931,500
1506084936938,499
1506084936947,499
1506084936956,498
1506084936963,498
1506084936972,498
1506084936980,498
1506084936988,500
1506084936996,498
1506084937004,500
1506084937013,501
1506084937021,501
1506084937029,504
1506084937037,503
1506084937045,502
1506084937053,503
1506084937061,502
1506084937069,503
1506084937074,501
1506084937082,501
1506084937090,500
1506084937098,499
1506084937107,499
1506084937115,499
1506084937124,500
1506084937132,499
1506084937140,498
1506084937148,498
1506084937156,498
1506084937164,498
1506084937172,498
1506084937181,498
1506084937189,499
1506084937197,498
1506084937205,499
1506084937213,499
1506084937222,499
1506084937229,500
1506084937234,499
1506084937242,499
1506084937250,500
1506084937258,499
1506084937266,499
1506084937275,498
1506084937283,499
1506084937292,499
1506084937299,498
1506084937308,499
1506084937316,498
1506084937324,500
1506084937332,501
1506084937340,501
1506084937348,504
1506084937357,505
1506084937365,507
1506084937373,509
1506084937381,511
1506084937389,514
1506084937393,516
1506084937402,519
1506084937410,519
1506084937418,519
1506084937426,521
1506084937434,519
1506084937442,518
1506084937450,517
1506084937458,514
1506084937467,514
1506084937476,511
1506084937484,510
1506084937492,509
1506084937500,507
1506084937508,507
1506084937516,505
1506084937524,505
1506084937532,504
1506084937540,502
1506084937548,502
1506084937553,501
1506084937562,500
1506084937570,499
1506084937578,498
1506084937586,499
1506084937594,497
1506084937602,497
1506084937610,497
1506084937619,496
1506084937627,498
1506084937637,497
1506084937643,497
1506084937651,497
1506084937660,496
1506084937668,496
1506084937676,496
1506084937684,497
1506084937692,497
1506084937700,497
1506084937708,498
1506084937716,497
1506084937721,498
1506084937729,499
1506084937738,498
1506084937746,499
1506084937754,498
1506084937762,498
1506084937770,499
1506084937778,498
1506084937787,498
1506084937795,497
1506084937803,498
1506084937811,498
1506084937819,497
1506084937828,498
1506084937836,499
1506084937844,498
1506084937853,498
1506084937860,497
1506084937868,496
1506084937876,496
1506084937881,496
1506084937889,495
1506084937897,495
1506084937905,496
1506084937913,496
1506084937922,497
1506084937930,498
1506084937938,497
1506084937946,499
1506084937954,498
1506084937962,500
1506084937970,502
1506084937979,504
1506084937987,509
1506084937996,511
1506084938004,516
1506084938011,519
1506084938019,520
1506084938028,525
1506084938037,526
1506084938040,527
1506084938048,527
1506084938057,524
1506084938065,522
1506084938073,520
1506084938082,518
1506084938090,515
1506084938098,512
1506084938106,511
1506084938114,509
1506084938122,507
1506084938131,506
1506084938138,504
1506084938147,504
1506084938155,503
1506084938163,501
1506084938171,501
1506084938179,500
1506084938188,500
1506084938196,500
1506084938200,501
1506084938208,502
1506084938216,503
1506084938225,504
1506084938233,505
1506084938242,505
1506084938250,506
1506084938258,504
1506084938266,505
1506084938274,504
1506084938282,504
1506084938291,504
1506084938299,502
1506084938307,503
1506084938315,501
1506084938323,501
1506084938331,501
1506084938339,500
1506084938348,501
1506084938356,501
1506084938360,500
1506084938368,500
1506084938377,500
1506084938384,500
1506084938393,500
1506084938401,500
1506084938409,501
1506084938417,500
1506084938425,502
1506084938434,500
1506084938442,499
1506084938450,500
1506084938458,499
1506084938466,499
1506084938475,499
1506084938483,500
1506084938491,500
1506084938499,499
1506084938508,501
1506084938516,500
1506084938520,501
1506084938528,502
1506084938536,502
1506084938544,504
1506084938552,506
1506084938561,508
1506084938569,511
1506084938577,513
1506084938585,518
1506084938593,522
1506084938602,525
1506084938610,529
1506084938618,531
1506084938626,534
1506084938634,535
1506084938642,535
1506084938650,536
1506084938658,534
1506084938667,533
1506084938675,530
1506084938679,527
1506084938687,524
1506084938695,520
1506084938704,517
1506084938712,515
1506084938720,512
1506084938729,510
1506084938737,508
1506084938745,507
1506084938753,506
1506084938761,506
1506084938769,506
1506084938777,505
1506084938786,507
1506084938794,508
1506084938802,509
1506084938810,511
1506084938819,512
1506084938827,514
1506084938834,514
1506084938839,515
1506084938847,518
1506084938855,518
1506084938864,519
1506084938872,519
1506084938880,519
1506084938888,519
1506084938896,517
1506084938904,517
1506084938912,516
1506084938920,515
1506084938929,514
1506084938937,512
1506084938945,512
1506084938953,509
1506084938961,510
1506084938969,509
1506084938978,507
1506084938986,506
1506084938994,505
1506084938998,504
1506084939006,505
1506084939015,503
1506084939023,504
1506084939031,503
1506084939039,504
1506084939047,504
1506084939056,504
1506084939064,507
1506084939072,507
1506084939080,508
1506084939088,510
1506084939096,509
1506084939104,510
1506084939113,509
1506084939121,509
1506084939129,510
1506084939137,509
1506084939145,512
1506084939153,512
1506084939158,516
1506084939166,521
1506084939174,524
1506084939182,529
1506084939190,534
1506084939199,538
1506084939207,542
1506084939215,545
1506084939223,548
1506084939232,551
1506084939240,551
1506084939248,551
1506084939256,549
1506084939264,549
1506084939272,546
1506084939280,542
1506084939289,539
1506084939297,533
1506084939306,529
1506084939314,525
1506084939319,520
1506084939327,518
1506084939335,514
1506084939343,513
1506084939351,510
1506084939359,509
1506084939368,508
1506084939376,506
1506084939384,508
1506084939392,508
1506084939400,509
1506084939408,510
1506084939417,510
1506084939425,512
1506084939433,513
1506084939441,513
1506084939449,515
1506084939458,514
1506084939466,516
1506084939474,515
1506084939478,515
1506084939486,517
1506084939494,515
1506084939503,515
1506084939511,515
1506084939519,514
1506084939527,514
1506084939535,512
1506084939543,512
1506084939552,511
1506084939560,510
1506084939568,511
1506084939576,509
1506084939584,510
1506084939592,509
1506084939601,509
1506084939609,510
1506084939617,510
1506084939625,511
1506084939633,512
1506084939638,513
1506084939646,515
1506084939654,513
1506084939662,515
1506084939670,515
1506084939678,516
1506084939687,517
1506084939695,516
1506084939703,515
1506084939711,515
1506084939719,514
1506084939727,514
1506084939736,514
1506084939744,516
1506084939753,518
1506084939760,521
1506084939768,527
1506084939777,532
1506084939785,539
1506084939793,544
1506084939801,549
1506084939805,553
1506084939815,555
1506084939822,556
1506084939830,556
1506084939839,555
1506084939847,553
1506084939855,548
1506084939863,546
1506084939871,542
1506084939879,536
1506084939888,534
1506084939896,529
1506084939904,525
1506084939912,522
1506084939920,518
1506084939929,516
1506084939937,512
1506084939945,511
1506084939953,509
1506084939961,508
1506084939966,507
1506084939974,505
1506084939982,505
1506084939991,505
1506084939998,503
1506084940006,505
1506084940015,504
1506084940023,506
1506084940031,508
1506084940040,510
1506084940047,513
1506084940056,512
1506084940064,515
1506084940072,515
1506084940080,515
1506084940088,516
1506084940096,515
1506084940104,514
1506084940112,512
1506084940120,511
1506084940125,511
1506084940133,508
1506084940142,508
1506084940150,507
1506084940158,505
1506084940166,506
1506084940174,504
1506084940182,504
1506084940191,505
1506084940199,504
1506084940207,503
1506084940215,503
1506084940223,503
1506084940231,502
1506084940239,503
1506084940248,504
1506084940257,502
1506084940265,503
1506084940273,504
1506084940281,503
1506084940285,504
1506084940293,504
1506084940302,504
1506084940309,503
1506084940318,502
1506084940326,504
1506084940334,504
1506084940342,507
1506084940350,510
1506084940358,514
1506084940367,521
1506084940375,525
1506084940384,532
1506084940391,539
1506084940399,544
1506084940407,548
1506084940416,551
1506084940424,552
1506084940432,551
1506084940440,549
1506084940445,548
1506084940453,543
1506084940461,540
1506084940469,535
1506084940478,530
1506084940486,527
1506084940494,522
1506084940503,519
1506084940511,516
1506084940519,513
1506084940527,511
1506084940535,509
1506084940544,509
1506084940553,509
1506084940560,509
1506084940568,511
1506084940576,510
1506084940584,512
1506084940592,512
1506084940600,512
1506084940605,513
1506084940613,512
1506084940621,512
1506084940629,511
1506084940637,511
1506084940645,512
1506084940654,511
1506084940662,512
1506084940670,512
1506084940678,511
1506084940686,512
1506084940695,511
1506084940703,512
1506084940711,511
1506084940720,510
1506084940727,508
1506084940737,506
1506084940744,505
1506084940752,503
1506084940760,501
1506084940764,501
1506084940773,498
1506084940781,498
1506084940789,497
1506084940797,495
1506084940805,495
1506084940813,494
1506084940822,493
1506084940830,493
1506084940838,493
1506084940846,494
1506084940854,492
1506084940862,494
1506084940870,495
1506084940878,495
1506084940887,496
1506084940895,496
1506084940903,497
1506084940911,499
1506084940919,498
1506084940923,498
1506084940932,497
1506084940940,497
1506084940948,497
1506084940956,497
1506084940964,499
1506084940973,499
1506084940981,501
1506084940989,503
1506084940997,503
1506084941006,506
1506084941014,508
1506084941022,510
1506084941030,512
1506084941038,515
1506084941046,519
1506084941054,519
1506084941063,521
1506084941071,522
1506084941079,521
1506084941083,522
1506084941092,520
1506084941100,519
1506084941109,517
1506084941116,515
1506084941125,514
1506084941133,510
1506084941141,509
1506084941149,507
1506084941157,504
1506084941165,504
1506084941174,501
1506084941182,500
1506084941190,499
1506084941198,497
1506084941206,496
1506084941214,495
1506084941223,494
1506084941231,494
1506084941238,493
1506084941243,494
1506084941252,493
1506084941260,495
1506084941268,497
1506084941276,497
1506084941284,500
1506084941293,500
1506084941301,500
1506084941309,502
1506084941317,501
1506084941325,503
1506084941333,502
1506084941341,502
1506084941350,503
1506084941358,502
1506084941367,505
1506084941375,504
1506084941383,504
1506084941391,504
1506084941399,501
1506084941403,500
1506084941411,497
1506084941420,496
1506084941428,495
1506084941436,494
1506084941444,493
1506084941453,490
1506084941461,489
1506084941469,488
1506084941477,486
1506084941485,486
1506084941493,485
1506084941501,485
1506084941510,485
1506084941518,485
1506084941526,487
1506084941534,487
1506084941542,489
1506084941550,490
1506084941558,491
1506084941563,493
1506084941570,493
1506084941579,493
1506084941587,495
1506084941596,493
1506084941604,492
1506084941612,492
1506084941620,491
1506084941628,490
1506084941637,489
1506084941645,490
1506084941653,488
1506084941661,489
1506084941669,491
1506084941678,489
1506084941686,490
1506084941694,489
1506084941702,489
1506084941710,490
1506084941719,489
1506084941726,489
1506084941731,488
1506084941739,487
1506084941747,487
1506084941756,485
1506084941764,487
1506084941772,486
1506084941780,486
1506084941788,487
1506084941796,485
1506084941804,486
1506084941813,486
1506084941821,487
1506084941829,489
1506084941837,490
1506084941845,494
1506084941854,497
1506084941862,501
1506084941870,506
1506084941878,509
1506084941886,516
1506084941890,518
1506084941899,520
1506084941907,522
1506084941915,522
1506084941923,521
1506084941931,518
1506084941940,517
1506084941947,514
1506084941956,509
1506084941964,506
1506084941972,502
1506084941980,498
1506084941988,495
1506084941996,489
1506084942004,486
1506084942013,481
1506084942021,478
1506084942029,477
1506084942037,473
1506084942045,474
1506084942050,472
1506084942058,472
1506084942066,473
1506084942075,472
1506084942083,473
1506084942091,473
1506084942099,474
1506084942107,476
1506084942116,477
1506084942124,478
1506084942132,478
1506084942140,481
1506084942148,481
1506084942156,481
1506084942164,483
1506084942172,484
1506084942181,483
1506084942190,484
1506084942197,484
1506084942205,485
1506084942210,484
1506084942218,484
1506084942226,484
1506084942234,481
1506084942242,482
1506084942251,480
1506084942259,479
1506084942267,479
1506084942276,476
1506084942283,477
1506084942291,476
1506084942300,476
1506084942308,476
1506084942317,475
1506084942325,476
1506084942333,476
1506084942341,476
1506084942349,477
1506084942358,477
1506084942365,478
1506084942370,478
1506084942378,479
1506084942386,479
1506084942394,477
1506084942402,478
1506084942411,478
1506084942419,478
1506084942427,479
1506084942435,479
1506084942443,481
1506084942451,482
1506084942459,482
1506084942467,484
1506084942476,483
1506084942484,484
1506084942492,483
1506084942500,482
1506084942509,482
1506084942517,479
1506084942525,480
1506084942530,479
1506084942538,479
1506084942547,480
1506084942554,479
1506084942562,480
1506084942570,481
1506084942578,480
1506084942586,482
1506084942595,480
1506084942603,482
1506084942611,482
1506084942619,481
1506084942627,484
1506084942636,483
1506084942644,484
1506084942652,484
1506084942661,484
1506084942669,486
1506084942677,485
1506084942685,487
1506084942689,488
1506084942697,490
1506084942707,493
1506084942715,494
1506084942723,498
1506084942730,502
1506084942739,504
1506084942747,509
1506084942754,511
1506084942763,514
1506084942771,515
1506084942779,516
1506084942787,517
1506084942795,515
1506084942803,516
1506084942812,513
1506084942820,510
1506084942828,508
1506084942836,503
1506084942844,501
1506084942848,498
1506084942857,495
1506084942865,495
1506084942873,492
1506084942882,492
1506084942890,491
1506084942898,489
1506084942906,490
1506084942914,488
1506084942922,489
1506084942930,489
1506084942939,488
1506084942947,489
1506084942956,487
1506084942963,487
1506084942972,486
1506084942980,486
1506084942988,488
1506084942996,488
1506084943004,489
1506084943009,490
1506084943017,490
1506084943025,493
1506084943033,493
1506084943041,494
1506084943049,495
1506084943058,494
1506084943066,494
1506084943074,493
1506084943083,493
1506084943091,492
1506084943099,490
1506084943107,491
1506084943115,489
1506084943123,491
1506084943131,491
1506084943139,491
1506084943147,493
1506084943157,492
1506084943164,492
1506084943169,493
1506084943177,493
1506084943185,494
1506084943193,492
1506084943201,494
1506084943209,494
1506084943218,492
1506084943226,494
1506084943234,493
1506084943243,493
1506084943250,494
1506084943258,492
1506084943267,492
1506084943275,489
1506084943283,489
1506084943291,487
1506084943299,486
1506084943308,486
1506084943316,484
1506084943324,484
1506084943328,485
1506084943336,484
1506084943344,485
1506084943352,484
1506084943361,486
1506084943369,486
1506084943377,486
1506084943385,486
1506084943393,486
1506084943401,487
1506084943409,488
1506084943418,487
1506084943427,488
1506084943434,488
1506084943444,489
1506084943452,490
1506084943460,490
1506084943468,492
1506084943476,493
1506084943484,496
1506084943488,499
1506084943497,501
1506084943504,505
1506084943512,507
1506084943521,511
1506084943529,515
1506084943537,518
1506084943545,521
1506084943553,522
1506084943562,524
1506084943569,524
1506084943577,522
1506084943586,522
1506084943594,519
1506084943602,518
1506084943611,514
1506084943619,510
1506084943627,509
1506084943636,504
1506084943643,502
1506084943648,499
1506084943656,495
1506084943664,494
1506084943672,490
1506084943680,489
1506084943688,486
1506084943697,484
1506084943705,484
1506084943713,481
1506084943721,481
1506084943729,481
1506084943737,479
1506084943746,480
1506084943754,480
1506084943762,482
1506084943770,484
1506084943779,485
1506084943786,488
1506084943795,489
1506084943803,492
1506084943811,494
1506084943815,495
1506084943823,496
1506084943831,496
1506084943840,497
1506084943848,498
1506084943856,496
1506084943864,496
1506084943872,494
1506084943880,493
1506084943888,492
1506084943897,490
1506084943905,490
1506084943913,488
1506084943921,488
1506084943929,487
1506084943938,485
1506084943946,485
1506084943954,483
1506084943962,482
1506084943970,481
1506084943974,480
1506084943983,481
1506084943991,480
1506084943999,482
1506084944007,482
1506084944015,482
1506084944024,483
1506084944032,482
1506084944040,484
1506084944048,485
1506084944056,485
1506084944064,487
1506084944073,487
1506084944081,487
1506084944090,487
1506084944098,487
1506084944107,488
1506084944114,487
1506084944123,489
1506084944131,490
1506084944135,489
1506084944143,492
1506084944151,491
1506084944159,491
1506084944167,493
1506084944175,492
1506084944184,493
1506084944192,492
1506084944200,493
1506084944208,492
1506084944217,492
1506084944225,493
1506084944233,495
1506084944241,494
1506084944250,495
1506084944258,496
1506084944266,499
1506084944274,501
1506084944282,504
1506084944290,508
1506084944295,511
1506084944303,517
1506084944311,519
1506084944319,523
1506084944327,524
1506084944335,524
1506084944344,525
1506084944352,523
1506084944360,521
1506084944368,519
1506084944377,514
1506084944384,512
1506084944392,507
1506084944400,505
1506084944409,503
1506084944418,499
1506084944426,498
1506084944434,494
1506084944442,492
1506084944450,492
1506084944455,490
1506084944463,490
1506084944471,488
1506084944479,487
1506084944487,488
1506084944496,488
1506084944504,490
1506084944512,491
1506084944520,492
1506084944528,493
1506084944536,493
1506084944544,496
1506084944553,496
1506084944561,497
1506084944569,498
1506084944577,499
1506084944585,501
1506084944593,500
1506084944601,500
1506084944609,500
1506084944614,499
1506084944622,500
1506084944630,499
1506084944638,498
1506084944646,498
1506084944655,497
1506084944663,497
1506084944671,495
1506084944679,494
1506084944687,493
1506084944695,491
1506084944704,491
1506084944712,490
1506084944720,490
1506084944728,491
1506084944737,490
1506084944745,492
1506084944753,492
1506084944761,492
1506084944769,493
1506084944773,493
1506084944781,494
1506084944790,493
1506084944798,493
1506084944806,494
1506084944814,492
1506084944822,494
1506084944831,494
1506084944839,493
1506084944847,495
1506084944855,495
1506084944864,496
1506084944872,495
1506084944880,495
1506084944888,495
1506084944897,495
1506084944905,495
1506084944913,493
1506084944921,494
1506084944930,495
1506084944934,494
1506084944942,494
1506084944950,494
1506084944958,494
1506084944967,495
1506084944975,494
1506084944983,494
1506084944991,495
1506084944999,496
1506084945008,499
1506084945016,500
1506084945024,505
1506084945032,508
1506084945040,512
1506084945048,517
1506084945057,520
1506084945065,525
1506084945073,528
1506084945081,530
1506084945089,533
1506084945094,531
1506084945102,531
1506084945110,528
1506084945118,525
1506084945126,523
1506084945134,518
1506084945142,516
1506084945151,513
1506084945159,510
1506084945167,509
1506084945175,506
1506084945183,504
1506084945192,502
1506084945199,501
1506084945208,500
1506084945216,498
1506084945224,498
1506084945232,497
1506084945241,496
1506084945249,499
1506084945253,499
1506084945262,500
1506084945270,501
1506084945278,501
1506084945286,501
1506084945294,501
1506084945302,504
1506084945310,503
1506084945319,504
1506084945327,506
1506084945335,506
1506084945343,508
1506084945351,507
1506084945359,506
1506084945367,507
1506084945376,505
1506084945384,505
1506084945392,503
1506084945400,502
1506084945408,502
1506084945412,501
1506084945421,502
1506084945429,501
1506084945437,501
1506084945446,502
1506084945453,500
1506084945462,500
1506084945470,500
1506084945478,499
1506084945486,499
1506084945494,497
1506084945502,498
1506084945511,497
1506084945519,496
1506084945527,499
1506084945535,497
1506084945544,497
1506084945552,497
1506084945560,497
1506084945568,499
1506084945573,498
1506084945581,499
1506084945589,498
1506084945598,499
1506084945606,499
1506084945614,498
1506084945622,500
1506084945630,499
1506084945638,498
1506084945646,499
1506084945654,499
1506084945662,499
1506084945670,500
1506084945679,498
1506084945687,500
1506084945696,499
1506084945703,502
1506084945712,503
1506084945720,504
1506084945728,508
1506084945732,509
1506084945740,515
1506084945749,519
1506084945757,523
1506084945765,528
1506084945774,530
1506084945782,534
1506084945791,535
1506084945798,537
1506084945806,538
1506084945814,536
1506084945822,535
1506084945831,532
1506084945839,528
1506084945847,525
1506084945855,520
1506084945863,517
1506084945871,513
1506084945879,510
1506084945887,507
1506084945896,505
1506084945900,503
1506084945908,501
1506084945916,499
1506084945924,500
1506084945933,497
1506084945941,498
1506084945950,496
1506084945958,495
1506084945966,497
1506084945974,497
1506084945982,498
1506084945990,499
1506084945998,500
1506084946007,503
1506084946015,503
1506084946023,506
1506084946031,507
1506084946039,508
1506084946047,510
1506084946055,510
1506084946060,511
1506084946068,510
1506084946076,509
1506084946085,510
1506084946093,509
1506084946101,509
1506084946109,508
1506084946118,506
1506084946127,506
1506084946134,504
1506084946143,504
1506084946150,503
1506084946159,503
1506084946167,503
1506084946175,500
1506084946183,502
1506084946191,501
1506084946200,500
1506084946207,501
1506084946216,499
1506084946220,500
1506084946228,500
1506084946236,498
1506084946244,498
1506084946253,497
1506084946261,498
1506084946269,498
1506084946277,498
1506084946285,500
1506084946293,498
1506084946302,500
1506084946310,500
1506084946318,499
1506084946326,501
1506084946336,501
1506084946343,502
1506084946352,501
1506084946359,501
1506084946367,502
1506084946375,500
1506084946379,501
1506084946388,502
1506084946396,501
1506084946404,505
1506084946412,505
1506084946420,508
1506084946428,512
1506084946437,516
1506084946445,520
1506084946453,525
1506084946461,531
1506084946469,535
1506084946478,538
1506084946486,542
1506084946494,542
1506084946502,543
1506084946510,544
1506084946519,541
1506084946527,539
1506084946534,535
1506084946539,531
1506084946547,528
1506084946556,523
1506084946563,520
1506084946571,516
1506084946579,514
1506084946588,510
1506084946597,507
1506084946605,506
1506084946613,503
1506084946621,502
1506084946629,502
1506084946638,500
1506084946646,501
1506084946654,502
1506084946662,502
1506084946671,503
1506084946678,503
1506084946687,506
1506084946695,506
1506084946699,509
1506084946707,510
1506084946716,510
1506084946723,511
1506084946732,512
1506084946740,513
1506084946748,513
1506084946756,514
1506084946764,515
1506084946772,514
1506084946780,514
1506084946789,514
1506084946797,512
1506084946805,513
1506084946813,511
1506084946822,510
1506084946830,510
1506084946838,508
1506084946846,508
1506084946854,506
1506084946858,505
1506084946866,503
1506084946875,501
1506084946883,502
1506084946891,500
1506084946899,500
1506084946908,500
1506084946916,499
1506084946924,500
1506084946933,499
1506084946941,499
1506084946949,500
1506084946957,500
1506084946965,502
1506084946973,501
1506084946981,502
1506084946990,503
1506084946998,502
1506084947006,503
1506084947014,503
1506084947019,503
1506084947027,504
1506084947035,504
1506084947043,504
1506084947051,505
1506084947059,505
1506084947067,505
1506084947076,504
1506084947084,506
1506084947092,506
1506084947100,507
1506084947108,509
1506084947117,510
1506084947125,514
1506084947133,518
1506084947141,523
1506084947149,528
1506084947157,532
1506084947165,537
1506084947173,540
1506084947179,543
1506084947186,546
1506084947195,545
1506084947203,546
1506084947211,544
1506084947219,542
1506084947227,540
1506084947236,536
1506084947244,533
1506084947252,528
1506084947260,525
1506084947268,522
1506084947276,516
1506084947285,515
1506084947292,511
1506084947301,509
1506084947309,508
1506084947317,505
1506084947325,504
1506084947333,502
1506084947337,502
1506084947346,501
1506084947354,500
1506084947362,501
1506084947371,501
1506084947379,502
1506084947387,504
1506084947396,504
1506084947404,507
1506084947412,509
1506084947420,510
1506084947428,512
1506084947436,513
1506084947444,516
1506084947452,515
1506084947460,517
1506084947468,518
1506084947477,516
1506084947485,518
1506084947493,517
1506084947498,516
1506084947506,515
1506084947514,512
1506084947522,512
1506084947530,509
1506084947539,508
1506084947547,507
1506084947555,504
1506084947563,504
1506084947571,502
1506084947580,502
1506084947588,503
1506084947596,501
1506084947604,503
1506084947612,502
1506084947620,503
1506084947628,504
1506084947636,503
1506084947645,504
1506084947653,504
1506084947657,504
1506084947665,506
1506084947674,505
1506084947682,506
1506084947690,506
1506084947698,507
1506084947706,508
1506084947715,507
1506084947723,507
1506084947731,507
1506084947740,507
1506084947748,508
1506084947756,507
1506084947764,511
1506084947772,511
1506084947780,515
1506084947789,520
1506084947797,524
1506084947805,530
1506084947813,535
1506084947818,539
1506084947826,544
1506084947834,546
1506084947842,548
1506084947850,549
1506084947858,549
1506084947866,549
1506084947874,544
1506084947883,542
1506084947891,538
1506084947899,533
1506084947907,531
1506084947916,525
1506084947924,521
1506084947932,516
1506084947940,513
1506084947948,511
1506084947956,506
1506084947964,506
1506084947972,504
1506084947977,502
1506084947985,502
1506084947993,501
1506084948001,501
1506084948009,501
1506084948017,501
1506084948026,503
1506084948034,503
1506084948042,504
1506084948050,505
1506084948058,508
1506084948067,510
1506084948075,511
1506084948083,512
1506084948091,513
1506084948099,514
1506084948107,516
1506084948117,515
1506084948124,516
1506084948132,516
1506084948140,516
1506084948145,516
1506084948153,513
1506084948161,514
1506084948169,512
1506084948177,511
1506084948185,510
1506084948193,507
1506084948202,507
1506084948211,505
1506084948218,504
1506084948227,503
1506084948234,501
1506084948243,501
1506084948251,500
1506084948259,500
1506084948267,501
1506084948276,500
1506084948283,504
1506084948292,502
1506084948300,501
1506084948305,503
1506084948313,502
1506084948321,503
1506084948329,503
1506084948337,502
1506084948345,503
1506084948354,501
1506084948362,502
1506084948370,501
1506084948378,502
1506084948386,503
1506084948395,502
1506084948403,505
1506084948411,508
1506084948419,510
1506084948427,517
1506084948436,521
1506084948444,527
1506084948452,532
1506084948460,538
1506084948464,543
1506084948473,545
1506084948481,549
1506084948489,550
1506084948497,549
1506084948505,549
1506084948513,545
1506084948522,542
1506084948530,538
1506084948538,533
1506084948546,528
1506084948554,523
1506084948562,519
1506084948571,514
1506084948579,510
1506084948587,508
1506084948596,503
1506084948603,502
1506084948612,500
1506084948620,498
1506084948624,498
1506084948632,496
1506084948640,496
1506084948650,496
1506084948657,496
1506084948666,498
1506084948674,499
1506084948682,502
1506084948690,504
1506084948698,504
1506084948706,507
1506084948714,507
1506084948722,509
1506084948730,510
1506084948738,510
1506084948746,511
1506084948755,511
1506084948763,512
1506084948771,511
1506084948779,511
1506084948783,513
1506084948792,511
1506084948800,511
1506084948808,512
1506084948817,510
1506084948825,510
1506084948832,508
1506084948841,508
1506084948849,507
1506084948857,507
1506084948866,508
1506084948873,507
1506084948882,508
1506084948890,509
1506084948898,508
1506084948906,509
1506084948914,508
1506084948922,510
1506084948930,510
1506084948938,510
1506084948943,510
1506084948951,509
1506084948959,509
1506084948967,509
1506084948975,508
1506084948984,509
1506084948992,508
1506084949000,509
1506084949008,510
1506084949016,509
1506084949024,510
1506084949033,509
1506084949041,509
1506084949049,510
1506084949057,511
1506084949065,514
1506084949073,516
1506084949082,522
1506084949090,528
1506084949098,533
1506084949102,541
1506084949110,545
1506084949118,551
1506084949127,555
1506084949135,557
1506084949143,560
1506084949151,559
1506084949159,559
1506084949168,557
1506084949176,553
1506084949185,550
1506084949193,543
1506084949202,541
1506084949210,535
1506084949218,530
1506084949226,527
1506084949234,524
1506084949242,521
1506084949250,517
1506084949258,515
1506084949262,514
1506084949271,511
1506084949279,510
1506084949288,509
1506084949296,508
1506084949304,509
1506084949312,509
1506084949320,509
1506084949329,511
1506084949337,511
1506084949345,513
1506084949353,515
1506084949361,517
1506084949369,520
1506084949378,521
1506084949386,523
1506084949394,524
1506084949402,526
1506084949411,527
1506084949418,526
1506084949423,527
1506084949431,526
1506084949439,526
1506084949447,526
1506084949456,524
1506084949464,524
1506084949472,521
1506084949480,521
1506084949488,520
1506084949496,518
1506084949504,519
1506084949513,517
1506084949521,516
1506084949529,516
1506084949537,514
1506084949545,514
1506084949553,513
1506084949562,514
1506084949570,513
1506084949578,511
1506084949582,512
1506084949590,509
1506084949598,509
1506084949607,509
1506084949615,506
1506084949623,507
1506084949631,507
1506084949639,508
1506084949648,508
1506084949656,508
1506084949664,510
1506084949672,509
1506084949680,510
1506084949688,509
1506084949697,508
1506084949705,510
1506084949713,510
1506084949721,512
1506084949729,517
1506084949737,519
1506084949742,526
1506084949750,531
1506084949758,537
1506084949766,544
1506084949774,549
1506084949783,555
1506084949791,558
1506084949799,561
1506084949807,563
1506084949816,561
1506084949824,561
1506084949832,557
1506084949840,555
1506084949848,552
1506084949856,546
1506084949865,544
1506084949872,539
1506084949881,536
1506084949889,533
1506084949897,529
1506084949901,527
1506084949909,525
1506084949918,523
1506084949926,521
1506084949934,518
1506084949942,518
1506084949950,514
1506084949958,514
1506084949967,514
1506084949975,513
1506084949983,514
1506084949991,514
1506084949999,515
1506084950008,517
1506084950016,518
1506084950024,520
1506084950032,520
1506084950041,519
1506084950050,519
1506084950058,516
1506084950066,515
1506084950070,511
1506084950078,507
1506084950086,504
1506084950094,499
1506084950103,497
1506084950110,493
1506084950119,492
1506084950127,491
1506084950136,489
1506084950143,489
1506084950151,487
1506084950159,488
1506084950168,490
1506084950176,490
1506084950184,493
1506084950193,495
1506084950201,498
1506084950209,501
1506084950217,503
1506084950225,509
1506084950229,511
1506084950238,515
1506084950246,519
1506084950254,519
1506084950262,522
1506084950271,521
1506084950279,521
1506084950287,522
1506084950295,520
1506084950303,519
1506084950311,515
1506084950319,513
1506084950327,511
1506084950336,508
1506084950344,508
1506084950352,506
1506084950360,507
1506084950369,507
1506084950377,506
1506084950385,508
1506084950389,510
1506084950398,511
1506084950405,514
1506084950414,516
1506084950422,519
1506084950430,522
1506084950438,525
1506084950447,527
1506084950454,527
1506084950463,528
1506084950471,526
1506084950479,524
1506084950488,522
1506084950496,519
1506084950504,516
1506084950512,513
1506084950520,510
1506084950528,509
1506084950537,505
1506084950545,504
1506084950549,502
1506084950557,500
1506084950565,499
1506084950573,495
1506084950582,494
1506084950590,492
1506084950598,489
1506084950606,487
1506084950614,485
1506084950623,485
1506084950631,484
1506084950639,485
1506084950647,486
1506084950656,485
1506084950663,487
1506084950672,489
1506084950680,490
1506084950688,494
1506084950696,495
1506084950704,499
1506084950709,501
1506084950717,503
1506084950725,505
1506084950733,506
1506084950741,507
1506084950750,506
1506084950758,503
1506084950766,503
1506084950774,499
1506084950782,499
1506084950790,498
1506084950799,496
1506084950807,497
1506084950815,495
1506084950823,497
1506084950831,496
1506084950839,496
1506084950847,497
1506084950856,496
1506084950863,497
1506084950868,497
1506084950876,497
1506084950884,499
1506084950892,498
1506084950901,499
1506084950909,499
1506084950917,499
1506084950925,499
1506084950933,497
1506084950941,497
1506084950950,496
1506084950958,494
1506084950966,494
1506084950974,492
1506084950982,492
1506084950990,492
1506084950999,491
1506084951007,494
1506084951015,495
1506084951023,499
1506084951027,503
1506084951036,508
1506084951045,516
1506084951053,521
1506084951061,527
1506084951069,532
1506084951077,536
1506084951085,541
1506084951094,542
1506084951102,545
1506084951110,544
1506084951118,542
1506084951126,541
1506084951134,535
1506084951142,533
1506084951151,528
1506084951159,521
1506084951168,516
1506084951176,508
1506084951184,501
1506084951188,495
1506084951196,488
1506084951205,485
1506084951212,479
1506084951221,477
1506084951229,474
1506084951237,473
1506084951245,477
1506084951253,477
1506084951261,480
1506084951270,483
1506084951278,485
1506084951286,491
1506084951294,493
1506084951302,499
1506084951311,502
1506084951319,507
1506084951327,511
1506084951336,513
1506084951344,517
1506084951348,519
1506084951356,521
1506084951365,523
1506084951372,522
1506084951380,522
1506084951389,521
1506084951397,519
1506084951405,517
1506084951413,513
1506084951421,512
1506084951429,509
1506084951437,506
1506084951445,506
1506084951453,502
1506084951462,502
1506084951471,500
1506084951479,499
1506084951487,500
1506084951495,498
1506084951503,498
1506084951507,497
1506084951516,496
1506084951524,497
1506084951532,494
1506084951540,494
1506084951548,492
1506084951556,488
1506084951564,487
1506084951574,481
1506084951582,476
1506084951589,469
1506084951598,460
1506084951606,453
1506084951614,444
1506084951622,436
1506084951630,427
1506084951638,418
1506084951646,413
1506084951654,408
1506084951662,407
1506084951667,408
1506084951676,409
1506084951683,416
1506084951691,421
1506084951699,428
1506084951707,434
1506084951716,440
1506084951724,446
1506084951732,450
1506084951742,456
1506084951749,462
1506084951757,466
1506084951765,472
1506084951774,473
1506084951782,478
1506084951790,481
1506084951798,484
1506084951806,487
1506084951814,488
1506084951822,490
1506084951827,491
1506084951835,489
1506084951843,489
1506084951851,485
1506084951859,484
1506084951868,482
1506084951876,480
1506084951884,481
1506084951892,481
1506084951900,483
1506084951909,486
1506084951917,487
1506084951925,491
1506084951933,492
1506084951941,495
1506084951950,498
1506084951958,498
1506084951966,502
1506084951974,502
1506084951982,503
1506084951986,504
1506084951994,503
1506084952003,505
1506084952011,503
1506084952019,504
1506084952027,504
1506084952035,501
1506084952043,499
1506084952052,495
1506084952060,493
1506084952068,491
1506084952076,487
1506084952085,485
1506084952093,480
1506084952101,477
1506084952110,473
1506084952118,469
1506084952126,468
1506084952134,465
1506084952142,465
1506084952146,465
1506084952154,463
1506084952162,466
1506084952170,464
1506084952179,464
1506084952187,467
1506084952196,466
1506084952204,468
1506084952212,469
1506084952220,471
1506084952228,472
1506084952236,471
1506084952244,475
1506084952253,476
1506084952261,479
1506084952270,483
1506084952277,484
1506084952286,488
1506084952294,490
1506084952302,494
1506084952310,499
1506084952314,503
1506084952323,512
1506084952330,519
1506084952339,531
1506084952347,543
1506084952355,551
1506084952363,566
1506084952371,575
1506084952379,581
1506084952388,586
1506084952396,584
1506084952404,586
1506084952413,583
1506084952421,579
1506084952429,575
1506084952437,567
1506084952445,560
1506084952454,550
1506084952462,541
1506084952470,533
1506084952473,521
1506084952482,515
1506084952491,506
1506084952499,498
1506084952507,494
1506084952515,487
1506084952523,484
1506084952531,480
1506084952539,478
1506084952548,478
1506084952556,476
1506084952564,480
1506084952572,482
1506084952580,485
1506084952588,491
1506084952597,494
1506084952607,500
1506084952613,503
1506084952622,508
1506084952630,512
1506084952634,513
1506084952642,518
1506084952650,518
1506084952658,519
1506084952666,520
1506084952674,520
1506084952683,521
1506084952691,519
1506084952699,518
1506084952707,517
1506084952715,513
1506084952723,513
1506084952732,510
1506084952740,509
1506084952749,509
1506084952757,504
1506084952765,502
1506084952773,499
1506084952781,498
1506084952789,499
1506084952793,496
1506084952802,497
1506084952810,497
1506084952818,497
1506084952826,498
1506084952834,496
1506084952843,498
1506084952851,498
1506084952859,498
1506084952867,500
1506084952876,498
1506084952884,500
1506084952892,500
1506084952900,501
1506084952908,503
1506084952916,502
1506084952924,504
1506084952932,506
1506084952941,508
1506084952949,512
1506084952953,514
1506084952961,521
1506084952969,525
1506084952978,531
1506084952986,538
1506084952994,541
1506084953002,546
1506084953010,550
1506084953018,553
1506084953026,556
1506084953035,555
1506084953043,556
1506084953051,554
1506084953059,551
1506084953067,550
1506084953076,543
1506084953084,541
1506084953092,537
1506084953100,534
1506084953108,533
1506084953112,529
1506084953121,530
1506084953129,528
1506084953137,528
1506084953145,530
1506084953153,528
1506084953161,530
1506084953170,530
1506084953178,529
1506084953186,532
1506084953194,530
1506084953202,531
1506084953211,529
1506084953219,529
1506084953228,529
1506084953236,526
1506084953244,527
1506084953252,525
1506084953260,524
1506084953268,527
1506084953272,526
1506084953281,528
1506084953289,529
1506084953297,529
1506084953305,532
1506084953313,533
1506084953321,536
1506084953330,537
1506084953338,538
1506084953346,540
1506084953354,538
1506084953362,539
1506084953370,538
1506084953378,536
1506084953387,538
1506084953396,538
1506084953404,540
1506084953412,542
1506084953420,543
1506084953428,546
1506084953432,546
1506084953440,547
1506084953449,548
1506084953457,547
1506084953465,548
1506084953473,544
1506084953481,543
1506084953489,541
1506084953498,538
1506084953506,536
1506084953515,531
1506084953523,530
1506084953531,527
1506084953539,524
1506084953547,524
1506084953555,522
1506084953563,523
1506084953571,525
1506084953580,528
1506084953588,535
1506084953592,539
1506084953600,546
1506084953608,552
1506084953616,556
1506084953624,561
1506084953632,563
1506084953641,567
1506084953649,570
1506084953657,570
1506084953665,573
1506084953674,570
1506084953682,570
1506084953690,567
1506084953699,564
1506084953707,561
1506084953715,554
1506084953723,550
1506084953731,544
1506084953739,538
1506084953747,532
1506084953751,525
1506084953760,520
1506084953768,516
1506084953776,510
1506084953784,508
1506084953792,503
1506084953800,504
1506084953808,502
1506084953817,499
1506084953825,501
1506084953833,500
1506084953841,501
1506084953849,503
1506084953858,503
1506084953866,506
1506084953874,507
1506084953882,510
1506084953890,512
1506084953900,512
1506084953908,515
1506084953912,513
1506084953920,514
1506084953928,513
1506084953936,511
1506084953944,512
1506084953952,510
1506084953960,509
1506084953968,508
1506084953977,506
1506084953985,506
1506084953993,503
1506084954002,504
1506084954010,504
1506084954018,501
1506084954026,502
1506084954035,499
1506084954043,500
1506084954051,500
1506084954059,499
1506084954067,501
1506084954075,500
1506084954080,501
1506084954088,501
1506084954096,500
1506084954104,503
1506084954112,502
1506084954120,504
1506084954128,504
1506084954136,503
1506084954144,504
1506084954152,503
1506084954162,503
1506084954169,503
1506084954177,502
1506084954186,504
1506084954194,503
1506084954203,508
1506084954211,513
1506084954219,516
1506084954227,524
1506084954235,529
1506084954240,538
1506084954248,544
1506084954256,549
1506084954263,555
1506084954272,556
1506084954280,559
1506084954289,559
1506084954297,557
1506084954305,555
1506084954313,550
1506084954321,546
1506084954329,541
1506084954337,533
1506084954345,528
1506084954353,519
1506084954362,514
1506084954370,508
1506084954378,501
1506084954386,498
1506084954394,491
1506084954399,489
1506084954409,485
1506084954416,481
1506084954424,482
1506084954433,477
1506084954440,478
1506084954448,479
1506084954456,478
1506084954464,481
1506084954472,482
1506084954480,487
1506084954489,490
1506084954497,492
1506084954505,497
1506084954513,498
1506084954522,502
1506084954530,504
1506084954538,504
1506084954546,507
1506084954554,507
1506084954558,508
1506084954566,507
1506084954574,505
1506084954584,507
1506084954591,505
1506084954601,505
1506084954608,505
1506084954616,503
1506084954624,504
1506084954632,501
1506084954640,500
1506084954648,499
1506084954657,497
1506084954665,497
1506084954673,495
1506084954682,495
1506084954690,495
1506084954698,493
1506084954706,496
1506084954714,494
1506084954718,496
1506084954727,498
1506084954735,497
1506084954743,501
1506084954751,501
1506084954760,502
1506084954768,504
1506084954777,504
1506084954784,506
1506084954792,504
1506084954800,506
1506084954809,506
1506084954817,504
1506084954825,508
1506084954833,506
1506084954841,504
1506084954850,505
1506084954858,502
1506084954866,504
1506084954874,505
1506084954878,509
1506084954886,514
1506084954894,517
1506084954903,526
1506084954910,531
1506084954919,539
1506084954927,548
1506084954936,551
1506084954943,557
1506084954951,557
1506084954960,558
1506084954969,557
1506084954976,552
1506084954984,549
1506084954992,542
1506084955000,536
1506084955009,530
1506084955017,521
1506084955025,517
1506084955033,510
1506084955037,504
1506084955045,500
1506084955054,494
1506084955062,491
1506084955070,488
1506084955078,485
1506084955086,483
1506084955095,480
1506084955104,483
1506084955112,481
1506084955120,483
1506084955128,487
1506084955137,488
1506084955145,493
1506084955154,496
1506084955162,499
1506084955169,503
1506084955177,505
1506084955185,509
1506084955193,510
1506084955198,511
1506084955206,513
1506084955214,512
1506084955222,513
1506084955230,512
1506084955238,510
1506084955246,510
1506084955255,505
1506084955263,506
1506084955271,503
1506084955279,501
1506084955287,499
1506084955296,496
1506084955304,496
1506084955312,494
1506084955320,493
1506084955328,494
1506084955337,492
1506084955345,494
1506084955353,492
1506084955357,492
1506084955365,494
1506084955373,492
1506084955381,494
1506084955389,493
1506084955398,493
1506084955407,495
1506084955415,493
1506084955423,495
1506084955431,495
1506084955439,497
1506084955447,498
1506084955455,496
1506084955464,498
1506084955472,498
1506084955480,497
1506084955489,498
1506084955497,497
1506084955505,500
1506084955513,503
1506084955517,508
1506084955525,514
1506084955533,519
1506084955541,527
1506084955550,533
1506084955558,539
1506084955566,545
1506084955574,548
1506084955582,552
1506084955590,551
1506084955598,550
1506084955607,549
1506084955616,544
1506084955624,542
1506084955632,535
1506084955640,528
1506084955648,523
1506084955656,514
1506084955665,510
1506084955672,503
1506084955680,498
1506084955684,494
1506084955693,488
1506084955701,486
1506084955709,482
1506084955718,479
1506084955726,479
1506084955734,476
1506084955742,478
1506084955750,479
1506084955759,480
1506084955766,484
1506084955775,486
1506084955783,491
1506084955791,492
1506084955800,495
1506084955808,498
1506084955816,499
1506084955824,503
1506084955832,504
1506084955840,505
1506084955846,507
1506084955852,505
1506084955860,507
1506084955869,506
1506084955877,505
1506084955885,504
1506084955893,501
1506084955901,502
1506084955909,499
1506084955918,496
1506084955926,496
1506084955934,493
1506084955942,493
1506084955950,492
1506084955959,489
1506084955967,490
1506084955975,488
1506084955983,489
1506084955991,490
1506084955999,490
1506084956004,492
1506084956012,490
1506084956020,492
1506084956028,492
1506084956036,492
1506084956045,494
1506084956053,494
1506084956062,495
1506084956070,495
1506084956078,495
1506084956086,497
1506084956095,495
1506084956103,497
1506084956110,497
1506084956119,499
1506084956127,504
1506084956136,506
1506084956143,512
1506084956152,518
1506084956159,523
1506084956164,531
1506084956172,536
1506084956180,544
1506084956188,547
1506084956196,549
1506084956206,553
1506084956213,549
1506084956222,549
1506084956230,545
1506084956238,539
1506084956246,536
1506084956255,528
1506084956262,522
1506084956270,516
1506084956279,509
1506084956287,505
1506084956296,498
1506084956303,496
1506084956311,491
1506084956319,487
1506084956323,486
1506084956332,482
1506084956340,482
1506084956348,481
1506084956356,480
1506084956364,482
1506084956373,483
1506084956381,486
1506084956389,488
1506084956397,489
1506084956406,494
1506084956414,494
1506084956423,498
1506084956431,500
1506084956439,500
1506084956447,504
1506084956455,503
1506084956463,505
1506084956471,505
1506084956479,505
1506084956483,506
1506084956491,504
1506084956499,505
1506084956508,502
1506084956517,500
1506084956525,501
1506084956533,497
1506084956541,497
1506084956549,496
1506084956557,493
1506084956565,493
1506084956574,490
1506084956582,490
1506084956590,490
1506084956598,488
1506084956607,490
1506084956615,488
1506084956623,489
1506084956630,490
1506084956640,489
1506084956644,491
1506084956652,490
1506084956660,492
1506084956668,494
1506084956676,493
1506084956684,495
1506084956692,494
1506084956700,495
1506084956709,495
1506084956717,494
1506084956726,497
1506084956734,496
1506084956742,499
1506084956750,503
1506084956758,507
1506084956766,514
1506084956774,519
1506084956782,527
1506084956791,535
1506084956799,540
1506084956803,547
1506084956811,550
1506084956820,554
1506084956828,555
1506084956836,552
1506084956844,553
1506084956852,547
1506084956860,543
1506084956868,538
1506084956877,531
1506084956885,526
1506084956893,518
1506084956901,513
1506084956909,508
1506084956917,502
1506084956926,499
1506084956934,493
1506084956943,491
1506084956951,490
1506084956959,486
1506084956964,486
1506084956971,485
1506084956980,485
1506084956988,485
1506084956996,486
1506084957004,489
1506084957012,489
1506084957020,493
1506084957028,496
1506084957037,497
1506084957044,502
1506084957053,503
1506084957061,506
1506084957069,508
1506084957077,509
1506084957085,512
1506084957093,511
1506084957102,511
1506084957110,512
1506084957118,508
1506084957122,509
1506084957131,506
1506084957139,505
1506084957148,504
1506084957156,500
1506084957164,500
1506084957172,496
1506084957180,495
1506084957188,494
1506084957197,491
1506084957205,492
1506084957213,490
1506084957221,491
1506084957229,492
1506084957237,491
1506084957245,493
1506084957254,492
1506084957262,492
1506084957270,493
1506084957278,491
1506084957282,493
1506084957290,491
1506084957298,491
1506084957307,493
1506084957315,491
1506084957324,492
1506084957331,492
1506084957340,494
1506084957347,496
1506084957356,497
1506084957364,503
1506084957372,506
1506084957380,513
1506084957388,521
1506084957397,527
1506084957405,536
1506084957413,543
1506084957421,550
1506084957429,557
1506084957437,559
1506084957445,563
1506084957450,562
1506084957458,561
1506084957466,557
1506084957474,551
1506084957483,547
1506084957491,540
1506084957499,533
1506084957507,527
1506084957515,519
1506084957523,515
1506084957531,509
1506084957540,504
1506084957548,501
1506084957556,496
1506084957564,495
1506084957572,492
1506084957581,492
1506084957589,493
1506084957597,490
1506084957605,493
1506084957610,493
1506084957618,495
1506084957627,498
1506084957635,500
1506084957643,503
1506084957651,504
1506084957660,507
1506084957668,510
1506084957677,509
1506084957684,512
1506084957692,513
1506084957700,514
1506084957708,515
1506084957716,513
1506084957724,514
1506084957732,512
1506084957741,510
1506084957749,511
1506084957757,509
1506084957766,508
1506084957770,505
1506084957778,504
1506084957786,504
1506084957795,501
1506084957803,502
1506084957811,501
1506084957819,499
1506084957828,500
1506084957836,498
1506084957845,499
1506084957852,497
1506084957860,497
1506084957869,499
1506084957876,498
1506084957885,500
1506084957893,499
1506084957901,499
1506084957909,500
1506084957917,498
1506084957925,500
1506084957929,501
1506084957938,502
1506084957946,503
1506084957954,502
1506084957962,505
1506084957970,504
1506084957978,504
1506084957986,506
1506084957995,507
1506084958002,510
1506084958011,513
1506084958019,518
1506084958027,525
1506084958036,530
1506084958044,539
1506084958052,545
1506084958060,552
1506084958068,558
1506084958076,560
1506084958084,565
1506084958089,564
1506084958097,564
1506084958106,562
1506084958114,557
1506084958122,554
1506084958130,548
1506084958138,541
1506084958146,535
1506084958154,527
1506084958163,523
1506084958171,516
1506084958179,510
1506084958187,508
1506084958195,501
1506084958203,499
1506084958212,497
1506084958220,494
1506084958229,494
1506084958236,493
1506084958245,494
1506084958249,494
1506084958257,497
1506084958266,501
1506084958273,501
1506084958282,507
1506084958290,509
1506084958298,511
1506084958306,516
1506084958314,516
1506084958322,518
1506084958330,519
1506084958338,519
1506084958347,521
1506084958355,518
1506084958363,520
1506084958372,518
1506084958381,517
1506084958388,517
1506084958396,514
1506084958404,514
1506084958408,512
1506084958416,510
1506084958426,510
1506084958433,506
1506084958442,507
1506084958450,505
1506084958458,504
1506084958466,504
1506084958474,501
1506084958482,502
1506084958490,501
1506084958499,500
1506084958507,503
1506084958516,501
1506084958523,502
1506084958531,503
1506084958539,503
1506084958547,505
1506084958556,504
1506084958563,506
1506084958568,507
1506084958576,506
1506084958585,507
1506084958593,506
1506084958601,507
1506084958609,508
1506084958618,506
1506084958626,508
1506084958634,508
1506084958642,512
1506084958650,515
1506084958658,519
1506084958666,528
1506084958675,533
1506084958683,542
1506084958691,551
1506084958699,558
1506084958708,568
1506084958716,571
1506084958724,572
1506084958728,571
1506084958736,567
1506084958744,565
1506084958752,560
1506084958760,554
1506084958768,547
1506084958777,540
1506084958785,535
1506084958793,526
1506084958801,521
1506084958810,516
1506084958818,510
1506084958826,507
1506084958834,502
1506084958842,501
1506084958851,499
1506084958859,497
1506084958868,498
1506084958876,496
1506084958884,498
1506084958888,499
1506084958897,501
1506084958905,504
1506084958913,505
1506084958921,510
1506084958929,513
1506084958937,515
1506084958945,518
1506084958953,519
1506084958961,521
1506084958970,522
1506084958978,520
1506084958986,523
1506084958994,519
1506084959003,518
1506084959011,517
1506084959019,513
1506084959027,513
1506084959035,509
1506084959043,508
1506084959047,506
1506084959056,504
1506084959064,505
1506084959072,502
1506084959080,502
1506084959088,501
1506084959097,499
1506084959105,501
1506084959113,499
1506084959121,500
1506084959129,501
1506084959137,501
1506084959146,503
1506084959154,502
1506084959162,506
1506084959170,504
1506084959178,504
1506084959186,506
1506084959195,505
1506084959203,506
1506084959207,506
1506084959216,505
1506084959224,507
1506084959232,506
1506084959240,511
1506084959248,514
1506084959256,515
1506084959264,517
1506084959272,517
1506084959281,522
1506084959289,530
1506084959297,534
1506084959305,542
1506084959313,548
1506084959322,553
1506084959330,559
1506084959338,564
1506084959346,569
1506084959354,570
1506084959362,571
1506084959370,569
1506084959375,565
1506084959383,560
1506084959391,547
1506084959399,538
1506084959408,529
1506084959416,519
1506084959424,513
1506084959432,506
1506084959440,501
1506084959449,499
1506084959456,495
1506084959464,494
1506084959473,489
1506084959481,489
1506084959489,487
1506084959497,485
1506084959505,489
1506084959514,488
1506084959522,490
1506084959530,494
1506084959534,495
1506084959542,500
1506084959550,503
1506084959559,506
1506084959567,510
1506084959575,511
1506084959583,516
1506084959592,515
1506084959600,516
1506084959608,518
1506084959617,516
1506084959625,517
1506084959633,515
1506084959641,514
1506084959650,512
1506084959658,508
1506084959666,508
1506084959674,503
1506084959682,502
1506084959690,501
1506084959695,497
1506084959703,498
1506084959711,495
1506084959719,495
1506084959727,494
1506084959736,492
1506084959744,493
1506084959752,493
1506084959760,493
1506084959768,494
1506084959777,493
1506084959785,496
1506084959793,495
1506084959801,496
1506084959809,498
1506084959818,500
1506084959826,501
1506084959834,500
1506084959842,500
1506084959850,501
1506084959855,500
1506084959862,501
1506084959871,500
1506084959879,500
1506084959887,500
1506084959895,498
1506084959903,500
1506084959911,499
1506084959919,502
1506084959928,507
1506084959936,511
1506084959944,519
1506084959952,525
1506084959960,533
1506084959969,541
1506084959977,546
1506084959985,554
1506084959994,559
1506084960002,563
1506084960009,566
1506084960014,562
1506084960023,561
1506084960031,556
1506084960039,551
1506084960047,546
1506084960055,537
1506084960063,533
1506084960071,526
1506084960079,521
1506084960087,516
1506084960095,509
1506084960104,507
1506084960112,504
1506084960120,500
1506084960128,498
1506084960137,494
1506084960145,493
1506084960153,491
1506084960161,491
1506084960169,492
1506084960173,491
1506084960181,494
1506084960190,497
1506084960198,498
1506084960206,501
1506084960214,501
1506084960222,504
1506084960231,505
1506084960239,506
1506084960247,509
1506084960255,508
1506084960263,510
1506084960272,510
1506084960280,510
1506084960288,510
1506084960296,507
1506084960304,507
1506084960312,505
1506084960321,506
1506084960329,506
1506084960333,501
1506084960342,501
1506084960350,498
1506084960358,496
1506084960366,496
1506084960375,493
1506084960383,494
1506084960391,494
1506084960399,494
1506084960407,496
1506084960416,494
1506084960424,495
1506084960432,495
1506084960440,495
1506084960448,496
1506084960456,494
1506084960464,497
1506084960472,496
1506084960480,496
1506084960488,498
1506084960493,496
1506084960501,498
1506084960509,497
1506084960517,498
1506084960526,500
1506084960534,497
1506084960543,499
1506084960550,498
1506084960560,499
1506084960567,500
1506084960576,500
1506084960583,504
1506084960591,507
1506084960599,510
1506084960608,519
1506084960616,524
1506084960624,533
1506084960632,542
1506084960640,548
1506084960648,557
1506084960652,561
1506084960661,565
1506084960669,565
1506084960677,566
1506084960685,566
1506084960693,560
1506084960702,558
1506084960711,551
1506084960718,543
1506084960727,537
1506084960736,529
1506084960743,523
1506084960752,517
1506084960760,510
1506084960768,507
1506084960777,501
1506084960785,499
1506084960793,495
1506084960801,492
1506084960809,492
1506084960813,490
1506084960821,491
1506084960830,492
1506084960838,492
1506084960846,496
1506084960854,496
1506084960862,500
1506084960870,503
1506084960878,506
1506084960887,509
1506084960895,510
1506084960903,512
1506084960911,514
1506084960919,515
1506084960927,517
1506084960936,515
1506084960944,515
1506084960952,514
1506084960960,512
1506084960968,511
1506084960972,506
1506084960980,505
1506084960989,502
1506084960997,499
1506084961005,498
1506084961013,494
1506084961022,493
1506084961030,491
1506084961038,491
1506084961046,496
1506084961054,494
1506084961062,495
1506084961070,498
1506084961079,495
1506084961087,494
1506084961095,491
1506084961105,491
1506084961113,490
1506084961120,489
1506084961128,490
1506084961132,488
1506084961141,489
1506084961149,489
1506084961157,488
1506084961165,492
1506084961173,491
1506084961181,492
1506084961189,493
1506084961198,493
1506084961205,495
1506084961214,496
1506084961222,498
1506084961230,498
1506084961238,498
1506084961246,500
1506084961256,500
1506084961263,501
1506084961272,503
1506084961280,505
1506084961288,511
1506084961292,516
1506084961301,524
1506084961309,531
1506084961317,537
1506084961325,546
1506084961333,550
1506084961341,556
1506084961349,558
1506084961358,558
1506084961366,560
1506084961374,556
1506084961382,552
1506084961390,548
1506084961398,541
1506084961407,536
1506084961415,527
1506084961423,522
1506084961431,515
1506084961441,508
1506084961447,505
1506084961455,498
1506084961460,495
1506084961468,492
1506084961476,488
1506084961484,487
1506084961492,485
1506084961501,485
1506084961509,486
1506084961517,487
1506084961525,488
1506084961533,488
1506084961542,491
1506084961549,494
1506084961559,495
1506084961567,500
1506084961575,501
1506084961583,504
1506084961591,505
1506084961599,506
1506084961608,508
1506084961615,507
1506084961620,508
1506084961628,507
1506084961636,505
1506084961644,506
1506084961652,502
1506084961661,501
1506084961669,500
1506084961677,497
1506084961685,497
1506084961693,493
1506084961702,493
1506084961710,492
1506084961718,490
1506084961726,491
1506084961734,488
1506084961742,490
1506084961750,491
1506084961758,490
1506084961766,493
1506084961775,491
1506084961779,493
1506084961787,495
1506084961796,495
1506084961803,497
1506084961812,497
1506084961820,499
1506084961828,499
1506084961836,499
1506084961844,501
1506084961852,500
1506084961861,501
1506084961869,502
1506084961877,499
1506084961885,502
1506084961893,499
1506084961901,499
1506084961910,501
1506084961918,499
1506084961926,499
1506084961934,499
1506084961938,502
1506084961946,507
1506084961955,511
1506084961963,519
1506084961971,527
1506084961980,535
1506084961987,544
1506084961996,549
1506084962005,556
1506084962013,557
1506084962021,560
1506084962029,561
1506084962038,557
1506084962046,555
1506084962054,549
1506084962062,544
1506084962070,538
1506084962079,530
1506084962087,525
1506084962095,515
1506084962099,509
1506084962107,504
1506084962116,498
1506084962123,496
1506084962132,491
1506084962140,489
1506084962148,485
1506084962156,481
1506084962164,483
1506084962172,482
1506084962180,483
1506084962189,485
1506084962197,485
1506084962205,490
1506084962213,492
1506084962222,496
1506084962230,500
1506084962238,502
1506084962246,507
1506084962255,511
1506084962259,516
1506084962267,515
1506084962275,514
1506084962283,516
1506084962291,518
1506084962300,515
1506084962307,516
1506084962316,513
1506084962324,511
1506084962332,505
1506084962340,499
1506084962348,493
1506084962357,486
1506084962365,485
1506084962373,482
1506084962381,480
1506084962389,480
1506084962397,478
1506084962406,480
1506084962415,480
1506084962419,482
1506084962427,484
1506084962435,485
1506084962443,489
1506084962451,490
1506084962460,492
1506084962468,495
1506084962476,496
1506084962484,498
1506084962492,499
1506084962500,500
1506084962509,501
1506084962517,500
1506084962525,502
1506084962533,501
1506084962541,501
1506084962549,501
1506084962558,499
1506084962566,502
1506084962574,503
1506084962578,505
1506084962586,511
1506084962594,513
1506084962602,521
1506084962611,526
1506084962618,532
1506084962628,539
1506084962636,542
1506084962644,548
1506084962652,549
1506084962660,549
1506084962668,550
1506084962676,546
1506084962684,544
1506084962693,538
1506084962701,532
1506084962709,528
1506084962717,519
1506084962725,515
1506084962733,508
1506084962738,503
1506084962746,499
1506084962754,493
1506084962762,491
1506084962771,488
1506084962779,484
1506084962787,484
1506084962795,481
1506084962803,483
1506084962811,484
1506084962819,484
1506084962828,488
1506084962836,489
1506084962844,493
1506084962852,496
1506084962860,498
1506084962869,503
1506084962877,503
1506084962885,508
1506084962893,508
1506084962897,509
1506084962906,511
1506084962914,509
1506084962922,509
1506084962930,507
1506084962938,506
1506084962946,505
1506084962955,501
1506084962963,501
1506084962971,499
1506084962979,496
1506084962987,496
1506084962996,494
1506084963003,493
1506084963012,491
1506084963020,490
1506084963028,491
1506084963036,488
1506084963044,490
1506084963053,489
1506084963058,489
1506084963066,491
1506084963074,489
1506084963082,491
1506084963091,491
1506084963099,492
1506084963106,494
1506084963115,493
1506084963123,496
1506084963131,495
1506084963139,496
1506084963147,498
1506084963155,496
1506084963164,498
1506084963172,499
1506084963180,500
1506084963188,504
1506084963197,506
1506084963205,513
1506084963213,518
1506084963217,524
1506084963225,533
1506084963233,536
1506084963242,543
1506084963250,550
1506084963258,550
1506084963267,553
1506084963275,551
1506084963283,551
1506084963291,548
1506084963299,543
1506084963307,539
1506084963316,531
1506084963323,525
1506084963332,518
1506084963340,511
1506084963348,507
1506084963356,500
1506084963364,497
1506084963372,494
1506084963380,493
1506084963385,495
1506084963393,492
1506084963401,490
1506084963409,489
1506084963417,487
1506084963427,488
1506084963435,488
1506084963442,491
1506084963450,493
1506084963458,496
1506084963467,501
1506084963476,502
1506084963484,506
1506084963492,508
1506084963500,509
1506084963508,512
1506084963516,511
1506084963524,513
1506084963532,513
1506084963540,512
1506084963544,512
1506084963552,509
1506084963560,508
1506084963570,506
1506084963578,504
1506084963586,504
1506084963594,500
1506084963602,499
1506084963610,498
1506084963620,496
1506084963627,497
1506084963636,494
1506084963644,495
1506084963651,495
1506084963659,492
1506084963667,493
1506084963676,491
1506084963684,491
1506084963692,491
1506084963700,490
1506084963705,492
1506084963713,490
1506084963721,492
1506084963729,493
1506084963737,493
1506084963745,495
1506084963754,493
1506084963762,496
1506084963770,497
1506084963778,497
1506084963786,502
1506084963794,505
1506084963803,511
1506084963812,519
1506084963819,525
1506084963827,534
1506084963836,540
1506084963844,548
1506084963852,554
1506084963860,556
1506084963864,559
1506084963872,557
1506084963880,556
1506084963888,553
1506084963897,548
1506084963905,544
1506084963913,537
1506084963921,531
1506084963929,524
1506084963938,517
1506084963946,512
1506084963955,504
1506084963963,499
1506084963972,496
1506084963980,489
1506084963988,488
1506084963996,484
1506084964004,484
1506084964012,483
1506084964020,483
1506084964024,484
1506084964032,485
1506084964041,488
1506084964048,490
1506084964057,491
1506084964065,496
1506084964073,497
1506084964081,500
1506084964089,503
1506084964098,505
1506084964106,508
1506084964114,508
1506084964122,510
1506084964131,510
1506084964139,509
1506084964148,510
1506084964155,507
1506084964164,506
1506084964172,506
1506084964180,502
1506084964184,502
1506084964192,498
1506084964200,496
1506084964208,495
1506084964216,492
1506084964225,493
1506084964233,490
1506084964241,491
1506084964249,491
1506084964257,489
1506084964265,491
1506084964274,490
1506084964282,492
1506084964290,493
1506084964298,493
1506084964307,496
1506084964315,495
1506084964323,497
1506084964331,498
1506084964339,497
1506084964343,500
1506084964352,499
1506084964360,500
1506084964368,501
1506084964376,501
1506084964384,505
1506084964392,507
1506084964401,512
1506084964409,518
1506084964417,524
1506084964425,532
1506084964433,537
1506084964442,545
1506084964450,551
1506084964458,553
1506084964466,558
1506084964474,557
1506084964482,556
1506084964490,555
1506084964499,549
1506084964503,546
1506084964511,539
1506084964520,534
1506084964528,528
1506084964536,520
1506084964544,516
1506084964552,509
1506084964560,503
1506084964568,500
1506084964576,494
1506084964584,493
1506084964593,488
1506084964602,487
1506084964610,486
1506084964618,488
1506084964626,490
1506084964634,487
1506084964642,488
1506084964651,490
1506084964658,489
1506084964663,493
1506084964671,493
1506084964679,496
1506084964687,499
1506084964695,500
1506084964704,502
1506084964712,503
1506084964720,504
1506084964728,506
1506084964737,503
1506084964744,506
1506084964753,504
1506084964761,504
1506084964769,504
1506084964777,502
1506084964785,502
1506084964794,500
1506084964802,499
1506084964810,498
1506084964818,494
1506084964822,496
1506084964830,494
1506084964839,493
1506084964847,493
1506084964855,491
1506084964863,492
1506084964871,491
1506084964880,491
1506084964887,493
1506084964896,492
1506084964904,494
1506084964912,493
1506084964920,494
1506084964929,496
1506084964937,494
1506084964946,496
1506084964954,495
1506084964962,496
1506084964970,496
1506084964978,495
1506084964982,497
1506084964990,497
1506084964998,499
1506084965007,503
1506084965015,505
1506084965023,514
1506084965031,520
1506084965039,526
1506084965048,535
1506084965056,542
1506084965064,549
1506084965072,553
1506084965080,557
1506084965088,560
1506084965097,558
1506084965105,557
1506084965113,552
1506084965121,547
1506084965129,544
1506084965137,535
1506084965141,529
1506084965151,522
1506084965159,517
1506084965167,512
1506084965175,506
1506084965183,502
1506084965191,496
1506084965199,492
1506084965208,490
1506084965216,485
1506084965224,485
1506084965232,484
1506084965241,483
1506084965249,486
1506084965257,485
1506084965265,489
1506084965273,490
1506084965281,492
1506084965289,495
1506084965298,495
1506084965306,498
1506084965310,499
1506084965318,499
1506084965326,502
1506084965334,501
1506084965342,503
1506084965351,502
1506084965359,502
1506084965367,503
1506084965375,502
1506084965383,502
1506084965391,500
1506084965399,499
1506084965408,499
1506084965416,497
1506084965425,497
1506084965433,496
1506084965441,494
1506084965449,495
1506084965457,493
1506084965465,494
1506084965470,494
1506084965478,493
1506084965486,494
1506084965494,492
1506084965502,494
1506084965510,494
1506084965519,495
1506084965527,497
1506084965536,496
1506084965543,498
1506084965552,499
1506084965560,498
1506084965568,501
1506084965576,500
1506084965584,501
1506084965592,500
1506084965601,500
1506084965609,502
1506084965617,498
1506084965624,500
1506084965629,500
1506084965637,499
1506084965645,502
1506084965654,503
1506084965662,508
1506084965671,513
1506084965679,520
1506084965687,527
1506084965695,533
1506084965703,541
1506084965711,547
1506084965719,553
1506084965728,558
1506084965736,557
1506084965744,559
1506084965752,556
1506084965760,553
1506084965768,549
1506084965777,543
1506084965784,538
1506084965789,530
1506084965797,523
1506084965805,519
1506084965813,511
1506084965822,507
1506084965830,502
1506084965838,497
1506084965846,495
1506084965854,491
1506084965862,488
1506084965870,488
1506084965879,486
1506084965887,488
1506084965895,486
1506084965903,488
1506084965911,490
1506084965920,491
1506084965928,495
1506084965936,496
1506084965944,500
1506084965948,502
1506084965957,504
1506084965966,507
1506084965974,507
1506084965982,509
1506084965990,509
1506084965998,509
1506084966007,509
1506084966015,506
1506084966023,506
1506084966031,504
1506084966039,501
1506084966047,501
1506084966056,497
1506084966064,496
1506084966072,496
1506084966080,494
1506084966088,495
1506084966096,494
1506084966104,494
1506084966109,494
1506084966117,492
1506084966125,494
1506084966133,492
1506084966142,493
1506084966150,494
1506084966157,492
1506084966166,495
1506084966174,494
1506084966182,496
1506084966190,496
1506084966198,495
1506084966206,497
1506084966216,495
1506084966224,497
1506084966232,496
1506084966240,495
1506084966248,498
1506084966256,496
1506084966264,497
1506084966268,497
1506084966276,496
1506084966285,499
1506084966293,500
1506084966301,504
1506084966309,508
1506084966317,511
1506084966326,520
1506084966334,525
1506084966342,534
1506084966350,542
1506084966358,546
1506084966366,553
1506084966375,556
1506084966383,559
1506084966391,560
1506084966399,558
1506084966407,556
1506084966415,550
1506084966423,546
1506084966427,540
1506084966436,532
1506084966444,527
1506084966452,520
1506084966460,514
1506084966468,509
1506084966477,503
1506084966485,500
1506084966494,496
1506084966502,495
1506084966510,492
1506084966518,488
1506084966526,489
1506084966534,486
1506084966542,487
1506084966550,489
1506084966559,488
1506084966567,491
1506084966576,493
1506084966584,496
1506084966588,500
1506084966597,502
1506084966604,506
1506084966613,507
1506084966621,510
1506084966629,512
1506084966637,512
1506084966646,515
1506084966654,514
1506084966662,513
1506084966670,514
1506084966678,512
1506084966687,512
1506084966694,510
1506084966703,510
1506084966710,509
1506084966719,505
1506084966727,506
1506084966736,503
1506084966743,502
1506084966747,502
1506084966756,499
1506084966764,500
1506084966772,499
1506084966781,498
1506084966789,499
1506084966797,498
1506084966805,501
1506084966813,499
1506084966821,500
1506084966830,500
1506084966838,499
1506084966846,501
1506084966854,500
1506084966863,500
1506084966871,501
1506084966879,500
1506084966888,501
1506084966895,500
1506084966903,501
1506084966907,502
1506084966916,500
1506084966924,504
1506084966932,503
1506084966940,507
1506084966948,512
1506084966956,517
1506084966965,525
1506084966973,532
1506084966981,539
1506084966989,547
1506084966998,552
1506084967006,561
1506084967013,564
1506084967022,566
1506084967030,566
1506084967039,562
1506084967046,561
1506084967054,555
1506084967063,549
1506084967070,544
1506084967075,535
1506084967083,530
1506084967091,523
1506084967100,516
1506084967108,512
1506084967116,505
1506084967124,501
1506084967132,496
1506084967140,493
1506084967148,492
1506084967157,489
1506084967165,491
1506084967173,490
1506084967181,491
1506084967189,494
1506084967197,495
1506084967206,500
1506084967215,503
1506084967222,507
1506084967231,511
1506084967235,512
1506084967243,517
1506084967251,518
1506084967259,519
1506084967267,520
1506084967276,519
1506084967284,520
1506084967292,518
1506084967300,518
1506084967308,518
1506084967317,514
1506084967325,514
1506084967334,510
1506084967342,512
1506084967350,515
1506084967358,512
1506084967366,512
1506084967374,510
1506084967382,510
1506084967390,512
1506084967394,511
1506084967403,512
1506084967411,511
1506084967419,507
1506084967427,506
1506084967436,507
1506084967444,508
1506084967452,508
1506084967460,507
1506084967469,508
1506084967477,507
1506084967485,506
1506084967493,499
1506084967501,496
1506084967509,494
1506084967517,492
1506084967525,493
1506084967534,494
1506084967542,496
1506084967550,503
1506084967554,508
1506084967562,517
1506084967570,525
1506084967579,534
1506084967587,544
1506084967595,551
1506084967603,560
1506084967611,565
1506084967620,570
1506084967628,573
1506084967637,571
1506084967645,570
1506084967653,563
1506084967661,555
1506084967670,549
1506084967677,543
1506084967686,538
1506084967694,530
1506084967702,521
1506084967710,517
1506084967714,509
1506084967722,507
1506084967730,501
1506084967738,497
1506084967747,496
1506084967755,492
1506084967763,492
1506084967771,490
1506084967780,490
1506084967787,493
1506084967796,493
1506084967804,496
1506084967812,498
1506084967820,501
1506084967828,506
1506084967837,508
1506084967845,512
1506084967853,514
1506084967861,516
1506084967869,519
1506084967873,518
1506084967882,520
1506084967890,519
1506084967898,518
1506084967906,518
1506084967914,514
1506084967923,515
1506084967931,512
1506084967939,510
1506084967948,509
1506084967956,503
1506084967964,503
1506084967972,500
1506084967980,497
1506084967989,497
1506084967997,494
1506084968005,495
1506084968013,494
1506084968021,494
1506084968029,496
1506084968033,493
1506084968042,495
1506084968050,496
1506084968058,495
1506084968066,498
1506084968074,497
1506084968083,498
1506084968091,499
1506084968099,499
1506084968107,502
1506084968115,501
1506084968123,504
1506084968131,507
1506084968140,510
1506084968149,516
1506084968157,520
1506084968165,527
1506084968173,534
1506084968181,541
1506084968189,550
1506084968193,556
1506084968201,563
1506084968210,567
1506084968218,570
1506084968226,572
1506084968234,568
1506084968242,568
1506084968250,563
1506084968259,556
1506084968268,551
1506084968276,541
1506084968284,535
1506084968292,529
1506084968300,521
1506084968308,516
1506084968316,508
1506084968324,505
1506084968332,500
1506084968340,494
1506084968349,492
1506084968353,488
1506084968361,487
1506084968369,488
1506084968377,487
1506084968385,490
1506084968393,490
1506084968402,494
1506084968410,497
1506084968419,499
1506084968427,504
1506084968436,505
1506084968443,510
1506084968452,512
1506084968460,513
1506084968468,516
1506084968476,514
1506084968484,516
1506084968493,515
1506084968501,513
1506084968509,514
1506084968513,510
1506084968521,509
1506084968529,507
1506084968538,504
1506084968546,504
1506084968553,499
1506084968562,499
1506084968570,495
1506084968578,493
1506084968587,494
1506084968595,491
1506084968603,492
1506084968611,492
1506084968620,491
1506084968628,493
1506084968636,493
1506084968644,495
1506084968652,496
1506084968661,495
1506084968668,497
1506084968673,496
1506084968681,497
1506084968689,499
1506084968698,501
1506084968706,503
1506084968714,499
1506084968722,499
1506084968730,500
1506084968738,499
1506084968746,503
1506084968754,504
1506084968763,512
1506084968771,519
1506084968779,527
1506084968787,537
1506084968796,543
1506084968804,550
1506084968812,558
1506084968820,562
1506084968828,566
1506084968832,566
1506084968841,567
1506084968849,565
1506084968857,561
1506084968865,557
1506084968873,548
1506084968881,542
1506084968889,536
1506084968897,528
1506084968906,527
1506084968914,519
1506084968922,516
1506084968930,513
1506084968938,504
1506084968946,505
1506084968955,498
1506084968963,496
1506084968971,495
1506084968979,490
1506084968987,493
1506084968992,489
1506084969000,491
1506084969008,492
1506084969016,487
1506084969024,488
1506084969032,487
1506084969041,490
1506084969049,493
1506084969057,494
1506084969065,498
1506084969073,498
1506084969082,501
1506084969090,503
1506084969098,502
1506084969106,505
1506084969114,504
1506084969122,505
1506084969131,505
1506084969139,503
1506084969147,503
1506084969155,503
1506084969160,503
1506084969168,501
1506084969176,499
1506084969184,499
1506084969192,496
1506084969202,497
1506084969210,497
1506084969218,495
1506084969226,496
1506084969234,495
1506084969242,496
1506084969250,497
1506084969258,496
1506084969266,498
1506084969274,497
1506084969282,498
1506084969290,498
1506084969299,495
1506084969307,498
1506084969315,497
1506084969319,499
1506084969327,500
1506084969336,499
1506084969344,501
1506084969353,500
1506084969361,502
1506084969369,505
1506084969378,506
1506084969386,512
1506084969395,514
1506084969402,521
1506084969410,530
1506084969419,536
1506084969427,546
1506084969435,552
1506084969443,560
1506084969451,565
1506084969459,569
1506084969467,572
1506084969475,570
1506084969480,569
1506084969488,566
1506084969496,559
1506084969504,555
1506084969512,546
1506084969520,540
1506084969529,534
1506084969537,526
1506084969545,520
1506084969553,513
1506084969561,508
1506084969570,503
1506084969578,497
1506084969586,495
1506084969594,491
1506084969602,489
1506084969610,488
1506084969619,486
1506084969627,489
1506084969635,489
1506084969639,491
1506084969647,494
1506084969656,495
1506084969664,499
1506084969672,501
1506084969680,504
1506084969688,508
1506084969697,508
1506084969705,512
1506084969713,512
1506084969721,512
1506084969729,514
1506084969737,512
1506084969746,512
1506084969755,510
1506084969762,509
1506084969770,509
1506084969779,506
1506084969786,506
1506084969795,502
1506084969799,499
1506084969807,498
1506084969815,494
1506084969823,494
1506084969831,492
1506084969839,491
1506084969848,492
1506084969856,490
1506084969864,492
1506084969872,491
1506084969880,492
1506084969889,494
1506084969897,492
1506084969905,494
1506084969913,493
1506084969921,494
1506084969929,496
1506084969938,494
1506084969946,496
1506084969954,496
1506084969958,497
1506084969966,498
1506084969974,497
1506084969983,499
1506084969991,498
1506084969999,497
1506084970007,499
1506084970015,498
1506084970024,501
1506084970032,505
1506084970040,511
1506084970048,518
1506084970057,525
1506084970065,536
1506084970073,544
1506084970081,552
1506084970089,560
1506084970097,563
1506084970105,569
1506084970114,570
1506084970118,569
1506084970126,568
1506084970134,561
1506084970142,558
1506084970150,550
1506084970159,543
1506084970167,536
1506084970175,527
1506084970183,521
1506084970191,514
1506084970200,507
1506084970209,503
1506084970217,496
1506084970225,493
1506084970233,490
1506084970241,487
1506084970249,486
1506084970257,485
1506084970265,486
1506084970274,487
1506084970278,490
1506084970285,493
1506084970295,494
1506084970303,500
1506084970311,503
1506084970319,505
1506084970327,510
1506084970336,511
1506084970344,514
1506084970352,515
1506084970360,516
1506084970368,518
1506084970376,516
1506084970384,517
1506084970393,515
1506084970401,512
1506084970409,512
1506084970417,508
1506084970425,506
1506084970433,505
1506084970437,501
1506084970446,500
1506084970454,496
1506084970462,496
1506084970470,493
1506084970478,492
1506084970486,493
1506084970495,491
1506084970503,494
1506084970511,499
1506084970519,498
1506084970527,504
1506084970536,503
1506084970544,501
1506084970552,500
1506084970560,495
1506084970568,493
1506084970577,488
1506084970585,490
1506084970593,489
1506084970597,488
1506084970605,490
1506084970613,488
1506084970622,490
1506084970630,491
1506084970638,491
1506084970646,493
1506084970654,492
1506084970663,495
1506084970671,496
1506084970679,498
1506084970687,503
1506084970695,505
1506084970704,512
1506084970712,518
1506084970720,525
1506084970728,535
1506084970736,543
1506084970744,551
1506084970752,559
1506084970757,563
1506084970765,568
1506084970773,568
1506084970781,569
1506084970789,567
1506084970798,562
1506084970806,557
1506084970814,548
1506084970823,542
1506084970831,533
1506084970840,525
1506084970848,519
1506084970856,511
1506084970864,505
1506084970872,499
1506084970880,494
1506084970888,492
1506084970897,487
1506084970905,487
1506084970913,485
1506084970917,484
1506084970925,486
1506084970933,486
1506084970942,489
1506084970950,492
1506084970958,494
1506084970966,500
1506084970974,502
1506084970982,507
1506084970991,511
1506084970999,513
1506084971007,517
1506084971015,516
1506084971023,519
1506084971031,519
1506084971040,518
1506084971048,518
1506084971056,515
1506084971064,515
1506084971072,512
1506084971080,509
1506084971085,508
1506084971093,504
1506084971101,503
1506084971109,500
1506084971117,497
1506084971126,497
1506084971134,494
1506084971142,494
1506084971150,494
1506084971158,493
1506084971166,495
1506084971174,494
1506084971183,496
1506084971192,496
1506084971199,497
1506084971208,499
1506084971217,497
1506084971225,499
1506084971232,500
1506084971241,500
1506084971245,502
1506084971253,502
1506084971261,503
1506084971269,503
1506084971277,502
1506084971286,505
1506084971294,503
1506084971302,505
1506084971310,506
1506084971318,504
1506084971327,507
1506084971334,507
1506084971343,512
1506084971351,518
1506084971359,524
1506084971367,533
1506084971375,540
1506084971384,549
1506084971392,557
1506084971400,562
1506084971404,569
1506084971412,570
1506084971420,572
1506084971429,572
1506084971438,567
1506084971446,563
1506084971454,556
1506084971462,551
1506084971470,543
1506084971478,534
1506084971487,527
1506084971494,518
1506084971503,513
1506084971511,507
1506084971519,499
1506084971527,496
1506084971535,490
1506084971543,487
1506084971551,486
1506084971560,485
1506084971565,486
1506084971573,485
1506084971581,489
1506084971589,492
1506084971597,493
1506084971605,500
