time,value
1506085271659,489
1506085271667,489
1506085271672,489
1506085271680,492
1506085271688,491
1506085271696,493
1506085271704,494
1506085271712,493
1506085271721,494
1506085271729,494
1506085271737,495
1506085271745,495
1506085271753,494
1506085271762,494
1506085271770,492
1506085271778,492
1506085271786,492
1506085271794,489
1506085271802,490
1506085271810,488
1506085271819,488
1506085271827,489
1506085271831,488
1506085271839,489
1506085271847,488
1506085271856,491
1506085271864,493
1506085271872,495
1506085271880,502
1506085271888,507
1506085271896,515
1506085271905,526
1506085271914,538
1506085271923,552
1506085271930,566
1506085271938,579
1506085271946,591
1506085271955,598
1506085271963,605
1506085271971,606
1506085271979,606
1506085271987,603
1506085271991,594
1506085271999,586
1506085272008,575
1506085272016,564
1506085272025,553
1506085272032,540
1506085272042,530
1506085272049,520
1506085272057,513
1506085272065,507
1506085272073,499
1506085272081,498
1506085272089,494
1506085272098,492
1506085272106,493
1506085272114,491
1506085272122,492
1506085272130,491
1506085272139,492
1506085272146,493
1506085272154,493
1506085272159,495
1506085272167,495
1506085272175,495
1506085272183,497
1506085272191,498
1506085272201,499
1506085272209,498
1506085272217,499
1506085272225,500
1506085272233,499
1506085272240,501
1506085272249,499
1506085272258,499
1506085272266,500
1506085272274,498
1506085272282,497
1506085272290,495
1506085272298,493
1506085272306,492
1506085272314,490
1506085272319,490
1506085272327,489
1506085272335,488
1506085272343,489
1506085272351,487
1506085272360,490
1506085272368,489
1506085272377,491
1506085272384,492
1506085272392,492
1506085272400,494
1506085272408,493
1506085272417,494
1506085272426,496
1506085272434,496
1506085272442,499
1506085272450,498
1506085272458,499
1506085272466,501
1506085272474,499
1506085272478,500
1506085272486,499
1506085272495,499
1506085272503,500
1506085272511,498
1506085272519,498
1506085272527,496
1506085272536,496
1506085272544,495
1506085272552,493
1506085272561,493
1506085272569,493
1506085272577,494
1506085272586,496
1506085272594,497
1506085272602,504
1506085272610,511
1506085272618,522
1506085272626,537
1506085272634,551
1506085272638,569
1506085272647,586
1506085272655,601
1506085272663,615
1506085272671,624
1506085272679,631
1506085272687,633
1506085272696,632
1506085272704,628
1506085272712,618
1506085272720,609
1506085272728,597
1506085272736,584
1506085272744,573
1506085272753,561
1506085272761,551
1506085272769,541
1506085272777,533
1506085272785,527
1506085272794,520
1506085272798,517
1506085272806,512
1506085272815,507
1506085272823,506
1506085272831,502
1506085272839,501
1506085272847,499
1506085272855,498
1506085272863,498
1506085272872,498
1506085272880,499
1506085272888,499
1506085272896,501
1506085272904,504
1506085272912,505
1506085272921,507
1506085272929,508
1506085272937,509
1506085272945,511
1506085272953,510
1506085272958,511
1506085272966,510
1506085272974,510
1506085272982,509
1506085272990,506
1506085272998,506
1506085273007,503
1506085273015,501
1506085273023,500
1506085273031,497
1506085273039,497
1506085273048,496
1506085273056,495
1506085273064,495
1506085273072,495
1506085273080,496
1506085273088,495
1506085273097,495
1506085273105,496
1506085273113,495
1506085273117,496
1506085273125,497
1506085273133,497
1506085273142,498
1506085273150,497
1506085273159,498
1506085273167,498
1506085273175,499
1506085273183,500
1506085273192,499
1506085273200,499
1506085273208,498
1506085273216,498
1506085273224,498
1506085273232,496
1506085273241,496
1506085273249,496
1506085273257,494
1506085273265,495
1506085273273,493
1506085273277,494
1506085273286,495
1506085273294,497
1506085273302,502
1506085273310,508
1506085273318,520
1506085273326,534
1506085273335,551
1506085273343,572
1506085273351,590
1506085273359,611
1506085273367,630
1506085273376,646
1506085273384,659
1506085273392,666
1506085273400,670
1506085273408,667
1506085273416,661
1506085273424,652
1506085273432,636
1506085273437,622
1506085273445,605
1506085273453,588
1506085273462,575
1506085273470,559
1506085273478,548
1506085273486,539
1506085273495,530
1506085273502,524
1506085273510,516
1506085273518,512
1506085273527,506
1506085273535,501
1506085273543,499
1506085273551,496
1506085273559,494
1506085273568,492
1506085273576,491
1506085273584,493
1506085273592,494
1506085273597,496
1506085273605,498
1506085273613,499
1506085273621,502
1506085273629,502
1506085273637,505
1506085273645,506
1506085273654,506
1506085273662,508
1506085273670,505
1506085273678,506
1506085273686,504
1506085273694,501
1506085273703,500
1506085273711,497
1506085273719,495
1506085273727,494
1506085273736,491
1506085273744,491
1506085273752,488
1506085273757,488
1506085273765,487
1506085273773,486
1506085273781,488
1506085273789,486
1506085273797,488
1506085273806,489
1506085273814,487
1506085273822,489
1506085273830,488
1506085273838,490
1506085273846,490
1506085273855,490
1506085273863,492
1506085273871,491
1506085273879,493
1506085273887,491
1506085273896,492
1506085273904,494
1506085273912,491
1506085273920,491
1506085273924,492
1506085273932,491
1506085273941,491
1506085273949,489
1506085273957,491
1506085273965,491
1506085273973,490
1506085273981,492
1506085273989,490
1506085273998,492
1506085274006,491
1506085274014,490
1506085274022,492
1506085274030,491
1506085274039,492
1506085274047,493
1506085274055,492
1506085274063,494
1506085274071,492
1506085274079,493
1506085274083,493
1506085274092,492
1506085274100,495
1506085274108,493
1506085274116,493
1506085274124,494
1506085274133,493
1506085274141,495
1506085274149,497
1506085274158,505
1506085274166,515
1506085274174,528
1506085274182,547
1506085274190,567
1506085274199,593
1506085274207,618
1506085274215,641
1506085274223,664
1506085274231,680
1506085274239,693
1506085274244,699
1506085274252,699
1506085274260,695
1506085274268,683
1506085274277,670
1506085274284,652
1506085274293,632
1506085274301,614
1506085274309,594
1506085274317,576
1506085274325,559
1506085274333,545
1506085274342,535
1506085274350,524
1506085274358,519
1506085274366,513
1506085274374,507
1506085274382,505
1506085274391,499
1506085274399,497
1506085274404,495
1506085274412,492
1506085274420,491
1506085274428,488
1506085274436,488
1506085274444,488
1506085274453,488
1506085274461,491
1506085274469,490
1506085274477,493
1506085274485,495
1506085274493,494
1506085274501,496
1506085274510,496
1506085274518,497
1506085274526,497
1506085274534,494
1506085274542,494
1506085274550,491
1506085274558,490
1506085274563,488
1506085274571,486
1506085274579,487
1506085274587,484
1506085274596,483
1506085274604,483
1506085274612,481
1506085274620,483
1506085274629,480
1506085274637,482
1506085274645,481
1506085274653,480
1506085274662,483
1506085274670,483
1506085274678,485
1506085274686,486
1506085274695,485
1506085274702,488
1506085274710,487
1506085274718,489
1506085274723,489
1506085274732,488
1506085274740,489
1506085274748,488
1506085274757,489
1506085274764,489
1506085274772,487
1506085274780,489
1506085274788,487
1506085274797,488
1506085274805,488
1506085274813,486
1506085274821,488
1506085274829,487
1506085274837,487
1506085274846,487
1506085274854,484
1506085274862,484
1506085274870,482
1506085274878,482
1506085274882,482
1506085274890,481
1506085274899,484
1506085274907,486
1506085274916,494
1506085274923,506
1506085274932,518
1506085274940,539
1506085274949,558
1506085274957,583
1506085274965,605
1506085274973,626
1506085274981,646
1506085274989,657
1506085274998,667
1506085275006,671
1506085275014,668
1506085275022,664
1506085275030,653
1506085275038,638
1506085275043,622
1506085275051,602
1506085275059,585
1506085275067,566
1506085275076,550
1506085275084,535
1506085275093,521
1506085275100,513
1506085275109,503
1506085275116,497
1506085275125,492
1506085275133,487
1506085275141,484
1506085275149,480
1506085275157,478
1506085275165,477
1506085275173,475
1506085275182,477
1506085275190,477
1506085275198,479
1506085275202,482
1506085275210,483
1506085275218,488
1506085275227,489
1506085275235,492
1506085275243,495
1506085275251,495
1506085275259,499
1506085275269,497
1506085275276,498
1506085275285,497
1506085275293,494
1506085275301,494
1506085275309,490
1506085275317,488
1506085275325,485
1506085275333,480
1506085275341,480
1506085275350,477
1506085275358,475
1506085275362,477
1506085275370,474
1506085275378,476
1506085275386,473
1506085275395,475
1506085275403,477
1506085275411,479
1506085275419,484
1506085275427,484
1506085275435,485
1506085275444,485
1506085275452,484
1506085275460,486
1506085275469,486
1506085275477,486
1506085275485,487
1506085275493,485
1506085275502,488
1506085275509,486
1506085275517,486
1506085275522,485
1506085275530,483
1506085275538,483
1506085275546,480
1506085275554,479
1506085275562,478
1506085275570,476
1506085275579,477
1506085275587,474
1506085275595,475
1506085275603,475
1506085275611,474
1506085275620,478
1506085275628,480
1506085275636,485
1506085275644,496
1506085275652,506
1506085275661,524
1506085275669,543
1506085275678,567
1506085275685,592
1506085275690,613
1506085275698,638
1506085275706,655
1506085275715,668
1506085275723,678
1506085275731,679
1506085275739,677
1506085275748,668
1506085275755,656
1506085275763,641
1506085275772,622
1506085275780,604
1506085275788,584
1506085275796,566
1506085275804,550
1506085275812,532
1506085275820,521
1506085275829,508
1506085275837,498
1506085275845,492
1506085275849,484
1506085275858,481
1506085275866,475
1506085275874,473
1506085275882,472
1506085275890,468
1506085275898,470
1506085275907,469
1506085275915,471
1506085275923,474
1506085275931,475
1506085275939,479
1506085275947,483
1506085275956,487
1506085275964,491
1506085275972,493
1506085275980,498
1506085275988,499
1506085275997,501
1506085276004,503
1506085276009,500
1506085276017,501
1506085276025,499
1506085276033,497
1506085276042,495
1506085276049,490
1506085276058,489
1506085276066,484
1506085276074,482
1506085276082,479
1506085276090,474
1506085276099,474
1506085276107,472
1506085276116,472
1506085276124,473
1506085276132,473
1506085276140,476
1506085276148,477
1506085276156,479
1506085276164,482
1506085276169,482
1506085276177,485
1506085276185,486
1506085276193,487
1506085276201,489
1506085276210,488
1506085276218,490
1506085276226,490
1506085276234,489
1506085276242,490
1506085276250,488
1506085276258,489
1506085276267,486
1506085276275,485
1506085276283,486
1506085276291,482
1506085276300,483
1506085276308,480
1506085276316,479
1506085276324,480
1506085276328,478
1506085276336,480
1506085276345,481
1506085276353,484
1506085276361,491
1506085276369,498
1506085276377,513
1506085276386,530
1506085276394,551
1506085276402,576
1506085276410,600
1506085276418,626
1506085276426,648
1506085276435,667
1506085276443,682
1506085276451,688
1506085276459,692
1506085276467,687
1506085276475,678
1506085276483,665
1506085276488,646
1506085276497,628
1506085276505,607
1506085276513,586
1506085276521,568
1506085276529,548
1506085276537,534
1506085276546,520
1506085276554,509
1506085276562,502
1506085276570,493
1506085276578,489
1506085276586,483
1506085276594,479
1506085276603,478
1506085276611,474
1506085276619,474
1506085276627,472
1506085276635,470
1506085276643,471
1506085276648,470
1506085276656,472
1506085276665,472
1506085276673,473
1506085276681,476
1506085276689,476
1506085276697,479
1506085276705,480
1506085276714,481
1506085276722,485
1506085276730,482
1506085276738,484
1506085276746,482
1506085276754,481
1506085276763,480
1506085276771,478
1506085276779,479
1506085276787,476
1506085276795,477
1506085276803,477
1506085276807,474
1506085276815,474
1506085276823,473
1506085276833,471
1506085276841,472
1506085276849,470
1506085276857,472
1506085276865,471
1506085276873,471
1506085276881,473
1506085276890,471
1506085276898,473
1506085276906,474
1506085276914,474
1506085276922,476
1506085276930,474
1506085276938,477
1506085276947,477
1506085276955,478
1506085276963,480
1506085276967,479
1506085276975,481
1506085276983,481
1506085276992,481
1506085277000,482
1506085277008,479
1506085277016,481
1506085277024,480
1506085277033,479
1506085277041,480
1506085277050,478
1506085277058,483
1506085277066,486
1506085277075,491
1506085277083,502
1506085277091,513
1506085277099,531
1506085277107,549
1506085277115,569
1506085277123,591
1506085277128,608
1506085277136,626
1506085277143,637
1506085277152,643
1506085277160,646
1506085277168,642
1506085277176,636
1506085277184,624
1506085277193,609
1506085277201,595
1506085277209,576
1506085277217,560
1506085277225,543
1506085277234,527
1506085277242,516
1506085277250,502
1506085277258,495
1506085277266,487
1506085277274,480
1506085277282,477
1506085277287,472
1506085277295,471
1506085277303,468
1506085277311,466
1506085277319,468
1506085277328,466
1506085277335,469
1506085277344,470
1506085277353,472
1506085277361,477
1506085277369,478
1506085277377,483
1506085277385,488
1506085277393,489
1506085277402,493
1506085277410,493
1506085277418,495
1506085277426,495
1506085277435,494
1506085277442,495
1506085277446,491
1506085277455,492
1506085277464,490
1506085277471,487
1506085277479,487
1506085277487,484
1506085277495,483
1506085277503,482
1506085277512,481
1506085277521,481
1506085277529,479
1506085277537,480
1506085277545,480
1506085277553,479
1506085277562,482
1506085277570,480
1506085277578,482
1506085277586,483
1506085277594,482
1506085277602,485
1506085277606,484
1506085277615,485
1506085277623,485
1506085277631,485
1506085277639,487
1506085277647,484
1506085277656,485
1506085277664,485
1506085277672,485
1506085277680,486
1506085277688,484
1506085277697,484
1506085277705,484
1506085277713,482
1506085277721,483
1506085277729,481
1506085277738,483
1506085277746,485
1506085277754,489
1506085277762,498
1506085277770,508
1506085277774,523
1506085277782,541
1506085277790,560
1506085277799,581
1506085277807,601
1506085277815,619
1506085277824,633
1506085277832,642
1506085277840,648
1506085277848,645
1506085277857,642
1506085277864,632
1506085277873,618
1506085277881,604
1506085277889,586
1506085277897,569
1506085277905,552
1506085277913,538
1506085277921,525
1506085277929,511
1506085277934,501
1506085277942,492
1506085277950,483
1506085277958,480
1506085277966,474
1506085277975,471
1506085277983,470
1506085277991,467
1506085277999,467
1506085278007,465
1506085278016,467
1506085278024,469
1506085278032,469
1506085278040,474
1506085278048,474
1506085278057,479
1506085278065,482
1506085278073,483
1506085278081,487
1506085278089,487
1506085278093,490
1506085278101,491
1506085278110,490
1506085278118,490
1506085278126,488
1506085278136,488
1506085278144,485
1506085278151,482
1506085278159,481
1506085278168,477
1506085278176,476
1506085278184,475
1506085278192,473
1506085278200,473
1506085278208,471
1506085278217,473
1506085278225,473
1506085278233,472
1506085278241,474
1506085278249,473
1506085278253,476
1506085278261,478
1506085278270,477
1506085278278,480
1506085278286,480
1506085278294,482
1506085278302,485
1506085278311,484
1506085278319,486
1506085278328,484
1506085278337,486
1506085278345,486
1506085278352,485
1506085278360,487
1506085278369,485
1506085278377,485
1506085278385,485
1506085278393,483
1506085278401,484
1506085278409,482
1506085278413,482
1506085278422,481
1506085278430,480
1506085278438,483
1506085278446,484
1506085278455,490
1506085278463,499
1506085278471,509
1506085278479,527
1506085278487,545
1506085278495,567
1506085278503,591
1506085278512,610
1506085278521,631
1506085278528,645
1506085278536,657
1506085278545,663
1506085278553,662
1506085278561,660
1506085278569,649
1506085278573,636
1506085278581,622
1506085278589,603
1506085278598,587
1506085278606,568
1506085278614,553
1506085278622,538
1506085278630,524
1506085278638,515
1506085278647,504
1506085278655,498
1506085278663,493
1506085278671,486
1506085278679,485
1506085278687,480
1506085278695,478
1506085278704,476
1506085278713,474
1506085278721,473
1506085278728,472
1506085278732,473
1506085278740,474
1506085278749,473
1506085278757,476
1506085278765,476
1506085278773,478
1506085278781,480
1506085278790,479
1506085278798,482
1506085278806,481
1506085278814,482
1506085278822,483
1506085278830,481
1506085278839,482
1506085278847,479
1506085278855,480
1506085278863,479
1506085278872,477
1506085278881,478
1506085278889,476
1506085278893,475
1506085278901,475
1506085278909,473
1506085278917,473
1506085278926,472
1506085278934,472
1506085278942,473
1506085278950,472
1506085278958,474
1506085278967,474
1506085278975,476
1506085278983,478
1506085278991,476
1506085278999,479
1506085279007,478
1506085279016,481
1506085279024,481
1506085279032,480
1506085279040,482
1506085279048,481
1506085279052,482
1506085279060,484
1506085279068,482
1506085279077,485
1506085279085,483
1506085279093,483
1506085279101,483
1506085279109,481
1506085279117,483
1506085279126,481
1506085279134,482
1506085279142,481
1506085279150,478
1506085279158,480
1506085279167,479
1506085279175,479
1506085279183,482
1506085279191,485
1506085279199,493
1506085279207,502
1506085279212,516
1506085279220,534
1506085279228,552
1506085279236,575
1506085279245,594
1506085279253,614
1506085279261,632
1506085279269,642
1506085279277,652
1506085279286,652
1506085279294,650
1506085279302,643
1506085279310,630
1506085279318,617
1506085279326,600
1506085279335,583
1506085279343,566
1506085279351,547
1506085279359,533
1506085279367,519
1506085279372,508
1506085279380,500
1506085279388,492
1506085279396,488
1506085279404,482
1506085279412,479
1506085279421,477
1506085279429,473
1506085279437,477
1506085279445,480
1506085279453,480
1506085279462,480
1506085279470,480
1506085279478,481
1506085279486,485
1506085279494,483
1506085279503,487
1506085279511,485
1506085279519,483
1506085279527,482
1506085279535,485
1506085279539,488
1506085279548,486
1506085279556,487
1506085279564,486
1506085279572,485
1506085279580,483
1506085279589,475
1506085279597,471
1506085279605,467
1506085279613,464
1506085279621,464
1506085279629,461
1506085279637,463
1506085279646,465
1506085279655,467
1506085279662,468
1506085279670,467
1506085279679,472
1506085279686,471
1506085279695,471
1506085279699,473
1506085279707,472
1506085279715,473
1506085279724,473
1506085279732,474
1506085279740,476
1506085279748,474
1506085279756,477
1506085279764,477
1506085279772,478
1506085279781,479
1506085279789,478
1506085279797,480
1506085279805,480
1506085279814,480
1506085279822,481
1506085279830,480
1506085279838,483
1506085279846,482
1506085279854,481
1506085279859,482
1506085279867,479
1506085279875,482
1506085279883,480
1506085279891,479
1506085279899,481
1506085279907,478
1506085279916,480
1506085279924,479
1506085279932,479
1506085279940,480
1506085279948,479
1506085279957,481
1506085279965,481
1506085279973,481
1506085279982,484
1506085279989,483
1506085279998,484
1506085280007,484
1506085280014,483
1506085280019,484
1506085280027,482
1506085280036,485
1506085280043,484
1506085280052,487
1506085280060,493
1506085280068,499
1506085280076,511
1506085280084,524
1506085280092,541
1506085280101,561
1506085280109,579
1506085280117,599
1506085280125,615
1506085280133,628
1506085280141,638
1506085280149,642
1506085280158,643
1506085280166,637
1506085280175,628
1506085280179,616
1506085280187,599
1506085280196,584
1506085280204,566
1506085280212,548
1506085280220,534
1506085280228,517
1506085280236,507
1506085280244,497
1506085280252,489
1506085280261,485
1506085280269,479
1506085280277,477
1506085280285,474
1506085280293,472
1506085280301,473
1506085280310,473
1506085280318,475
1506085280326,478
1506085280334,478
1506085280339,479
1506085280346,479
1506085280355,483
1506085280363,484
1506085280371,486
1506085280379,489
1506085280387,489
1506085280396,490
1506085280403,492
1506085280411,489
1506085280420,491
1506085280428,488
1506085280436,488
1506085280444,486
1506085280452,484
1506085280461,484
1506085280469,479
1506085280477,479
1506085280485,477
1506085280493,474
1506085280497,475
1506085280506,473
1506085280515,474
1506085280522,475
1506085280530,475
1506085280539,476
1506085280547,476
1506085280555,479
1506085280563,479
1506085280571,479
1506085280579,481
1506085280587,480
1506085280596,483
1506085280604,484
1506085280612,484
1506085280620,487
1506085280628,485
1506085280637,487
1506085280645,487
1506085280654,486
1506085280658,487
1506085280666,483
1506085280675,485
1506085280682,485
1506085280691,482
1506085280699,482
1506085280708,480
1506085280715,481
1506085280723,481
1506085280731,479
1506085280740,479
1506085280748,478
1506085280756,479
1506085280764,479
1506085280772,481
1506085280780,487
1506085280789,492
1506085280797,502
1506085280805,518
1506085280813,536
1506085280817,550
1506085280826,563
1506085280834,579
1506085280842,594
1506085280850,604
1506085280858,615
1506085280866,618
1506085280875,619
1506085280883,614
1506085280891,605
1506085280899,596
1506085280907,581
1506085280915,568
1506085280923,556
1506085280931,539
1506085280940,527
1506085280948,512
1506085280956,504
1506085280964,495
1506085280972,485
1506085280977,480
1506085280985,474
1506085280993,472
1506085281001,469
1506085281009,467
1506085281018,468
1506085281026,467
1506085281035,472
1506085281042,479
1506085281051,478
1506085281058,486
1506085281067,488
1506085281075,489
1506085281083,492
1506085281091,497
1506085281100,500
1506085281109,499
1506085281117,501
1506085281125,500
1506085281133,499
1506085281137,497
1506085281145,488
1506085281154,484
1506085281161,481
1506085281170,475
1506085281178,475
1506085281186,471
1506085281194,471
1506085281202,470
1506085281211,471
1506085281219,468
1506085281228,464
1506085281235,465
1506085281244,466
1506085281252,464
1506085281260,467
1506085281268,468
1506085281276,471
1506085281284,472
1506085281292,474
1506085281300,478
1506085281305,478
1506085281313,481
1506085281322,483
1506085281330,483
1506085281338,487
1506085281346,488
1506085281355,490
1506085281362,492
1506085281371,491
1506085281379,492
1506085281387,490
1506085281395,491
1506085281403,491
1506085281411,488
1506085281419,488
1506085281428,486
1506085281436,485
1506085281444,484
1506085281452,482
1506085281460,483
1506085281464,483
1506085281472,486
1506085281481,490
1506085281489,496
1506085281497,507
1506085281505,518
1506085281514,535
1506085281522,553
1506085281530,569
1506085281538,587
1506085281547,602
1506085281555,614
1506085281563,624
1506085281571,626
1506085281579,628
1506085281587,622
1506085281596,615
1506085281604,604
1506085281612,589
1506085281621,577
1506085281624,561
1506085281632,547
1506085281641,534
1506085281649,521
1506085281657,512
1506085281665,503
1506085281673,497
1506085281681,492
1506085281689,487
1506085281697,485
1506085281707,481
1506085281715,480
1506085281723,480
1506085281731,478
1506085281739,480
1506085281747,479
1506085281756,480
1506085281764,482
1506085281772,482
1506085281780,485
1506085281784,486
1506085281792,489
1506085281800,490
1506085281808,491
1506085281816,494
1506085281825,493
1506085281833,494
1506085281841,494
1506085281849,491
1506085281858,492
1506085281866,490
1506085281875,487
1506085281883,486
1506085281891,482
1506085281899,481
1506085281907,478
1506085281915,478
1506085281924,479
1506085281931,476
1506085281939,478
1506085281944,476
1506085281952,475
1506085281960,476
1506085281968,476
1506085281976,478
1506085281984,477
1506085281993,479
1506085282001,481
1506085282009,479
1506085282017,483
1506085282025,482
1506085282034,484
1506085282042,486
1506085282050,485
1506085282058,488
1506085282066,487
1506085282074,488
1506085282083,488
1506085282091,487
1506085282099,489
1506085282103,487
1506085282112,488
1506085282120,488
1506085282128,486
1506085282137,488
1506085282145,486
1506085282153,486
1506085282161,486
1506085282169,484
1506085282177,487
1506085282186,486
1506085282194,490
1506085282202,495
1506085282210,499
1506085282219,511
1506085282227,525
1506085282235,538
1506085282243,555
1506085282251,572
1506085282259,596
1506085282263,611
1506085282271,624
1506085282280,632
1506085282288,635
1506085282296,637
1506085282304,635
1506085282312,626
1506085282320,617
1506085282329,600
1506085282337,584
1506085282345,565
1506085282354,549
1506085282362,535
1506085282370,521
1506085282378,511
1506085282386,501
1506085282395,498
1506085282403,495
1506085282411,489
1506085282419,488
1506085282423,485
1506085282431,484
1506085282439,484
1506085282448,482
1506085282456,482
1506085282464,482
1506085282472,483
1506085282480,484
1506085282489,484
1506085282496,488
1506085282505,488
1506085282513,489
1506085282521,491
1506085282529,490
1506085282537,493
1506085282546,492
1506085282555,493
1506085282562,494
1506085282571,492
1506085282579,493
1506085282583,491
1506085282591,490
1506085282599,489
1506085282607,486
1506085282616,487
1506085282624,484
1506085282632,483
1506085282640,483
1506085282648,480
1506085282656,481
1506085282664,481
1506085282672,485
1506085282681,484
1506085282690,484
1506085282698,483
1506085282706,481
1506085282714,481
1506085282722,483
1506085282730,480
1506085282738,484
1506085282743,485
1506085282751,486
1506085282759,488
1506085282767,488
1506085282775,490
1506085282783,490
1506085282792,492
1506085282800,493
1506085282808,491
1506085282816,493
1506085282824,492
1506085282832,493
1506085282840,494
1506085282849,491
1506085282857,491
1506085282865,488
1506085282873,487
1506085282881,487
1506085282890,485
1506085282898,487
1506085282902,486
1506085282910,489
1506085282918,492
1506085282926,493
1506085282935,501
1506085282943,510
1506085282951,522
1506085282959,539
1506085282967,553
1506085282975,572
1506085282983,589
1506085282991,604
1506085283000,617
1506085283008,623
1506085283016,628
1506085283024,628
1506085283033,622
1506085283041,616
1506085283049,603
1506085283057,591
1506085283065,577
1506085283069,562
1506085283078,550
1506085283086,536
1506085283095,527
1506085283103,516
1506085283111,509
1506085283119,504
1506085283128,498
1506085283136,496
1506085283144,493
1506085283152,491
1506085283160,490
1506085283168,488
1506085283177,488
1506085283185,488
1506085283193,489
1506085283201,491
1506085283209,491
1506085283217,494
1506085283225,495
1506085283230,495
1506085283239,498
1506085283246,498
1506085283255,500
1506085283263,501
1506085283271,501
1506085283279,502
1506085283287,499
1506085283295,500
1506085283303,498
1506085283312,496
1506085283320,496
1506085283328,492
1506085283336,491
1506085283345,489
1506085283353,487
1506085283361,487
1506085283369,485
1506085283377,485
1506085283385,485
1506085283390,484
1506085283398,487
1506085283406,485
1506085283415,488
1506085283423,489
1506085283430,489
1506085283438,491
1506085283447,491
1506085283455,494
1506085283463,494
1506085283472,494
1506085283480,496
1506085283488,495
1506085283496,497
1506085283504,497
1506085283512,496
1506085283520,498
1506085283529,495
1506085283537,496
1506085283545,495
1506085283549,494
1506085283557,495
1506085283565,493
1506085283575,493
1506085283582,492
1506085283591,492
1506085283599,493
1506085283607,491
1506085283615,493
1506085283623,496
1506085283631,498
1506085283639,507
1506085283648,516
1506085283656,529
1506085283664,543
1506085283672,560
1506085283680,578
1506085283688,591
1506085283697,607
1506085283705,618
1506085283709,624
1506085283717,631
1506085283725,628
1506085283733,625
1506085283742,619
1506085283750,607
1506085283758,597
1506085283767,582
1506085283774,569
1506085283783,556
1506085283791,543
1506085283799,534
1506085283808,522
1506085283816,515
1506085283824,509
1506085283832,502
1506085283840,500
1506085283848,495
1506085283857,493
1506085283865,492
1506085283869,489
1506085283877,491
1506085283885,489
1506085283893,491
1506085283902,493
1506085283910,493
1506085283918,496
1506085283926,496
1506085283935,498
1506085283943,501
1506085283951,501
1506085283959,503
1506085283967,502
1506085283976,503
1506085283984,503
1506085283992,501
1506085284000,501
1506085284008,498
1506085284016,497
1506085284024,496
1506085284028,492
1506085284036,492
1506085284045,489
1506085284053,488
1506085284061,488
1506085284069,486
1506085284077,486
1506085284086,485
1506085284094,486
1506085284103,486
1506085284110,486
1506085284119,489
1506085284127,489
1506085284135,492
1506085284143,494
1506085284152,493
1506085284160,496
1506085284168,496
1506085284176,497
1506085284184,498
1506085284188,498
1506085284197,500
1506085284205,500
1506085284213,502
1506085284221,502
1506085284229,501
1506085284237,504
1506085284246,501
1506085284254,501
1506085284262,501
1506085284270,499
1506085284278,499
1506085284287,497
1506085284295,497
1506085284304,496
1506085284312,493
1506085284319,494
1506085284327,492
1506085284336,494
1506085284344,496
1506085284348,499
1506085284356,508
1506085284364,517
1506085284372,532
1506085284380,549
1506085284388,566
1506085284397,588
1506085284405,604
1506085284413,623
1506085284421,639
1506085284430,648
1506085284438,657
1506085284447,656
1506085284456,654
1506085284463,646
1506085284471,634
1506085284479,622
1506085284488,606
1506085284496,592
1506085284504,578
1506085284508,563
1506085284516,552
1506085284524,540
1506085284532,531
1506085284541,526
1506085284549,519
1506085284557,515
1506085284565,509
1506085284573,506
1506085284581,503
1506085284590,499
1506085284598,499
1506085284606,495
1506085284615,495
1506085284622,495
1506085284630,493
1506085284639,496
1506085284647,496
1506085284655,499
1506085284663,500
1506085284667,500
1506085284675,503
1506085284684,502
1506085284692,504
1506085284701,504
1506085284709,502
1506085284717,503
1506085284725,501
1506085284733,501
1506085284741,500
1506085284749,497
1506085284758,496
1506085284766,493
1506085284774,491
1506085284782,490
1506085284790,486
1506085284798,487
1506085284807,485
1506085284815,485
1506085284823,485
1506085284831,484
1506085284835,486
1506085284843,484
1506085284851,486
1506085284859,488
1506085284868,487
1506085284876,490
1506085284884,489
1506085284892,490
1506085284900,492
1506085284909,491
1506085284917,494
1506085284925,493
1506085284933,494
1506085284941,494
1506085284950,495
1506085284958,496
1506085284966,494
1506085284974,494
1506085284982,495
1506085284990,492
1506085284995,492
1506085285003,490
1506085285012,489
1506085285020,488
1506085285028,487
1506085285036,489
1506085285044,487
1506085285053,489
1506085285061,491
1506085285069,493
1506085285077,504
1506085285086,513
1506085285094,527
1506085285102,545
1506085285110,564
1506085285118,586
1506085285126,605
1506085285135,624
1506085285142,640
1506085285150,650
1506085285155,659
1506085285163,660
1506085285171,657
1506085285179,650
1506085285188,637
1506085285196,626
1506085285204,609
1506085285212,593
1506085285220,578
1506085285229,562
1506085285237,550
1506085285245,537
1506085285253,527
1506085285261,521
1506085285269,511
1506085285278,507
1506085285286,500
1506085285294,496
1506085285302,493
1506085285310,488
1506085285315,487
1506085285323,485
1506085285331,484
1506085285339,485
1506085285347,484
1506085285356,487
1506085285363,487
1506085285371,489
1506085285380,493
1506085285388,492
1506085285396,496
1506085285405,497
1506085285413,498
1506085285421,499
1506085285429,499
1506085285437,500
1506085285446,498
1506085285454,498
1506085285462,498
1506085285470,494
1506085285474,493
1506085285482,490
1506085285490,487
1506085285498,486
1506085285507,481
1506085285515,481
1506085285524,480
1506085285532,479
1506085285540,479
1506085285548,477
1506085285556,479
1506085285564,480
1506085285572,480
1506085285581,482
1506085285589,482
1506085285597,485
1506085285605,487
1506085285613,488
1506085285621,491
1506085285629,491
1506085285634,494
1506085285642,494
1506085285651,495
1506085285658,497
1506085285666,496
1506085285676,497
1506085285684,495
1506085285692,493
1506085285700,493
1506085285708,490
1506085285716,489
1506085285724,487
1506085285732,487
1506085285741,488
1506085285749,488
1506085285757,494
1506085285765,499
1506085285773,510
1506085285781,525
1506085285790,539
1506085285794,560
1506085285802,579
1506085285810,597
1506085285818,615
1506085285826,627
1506085285835,638
1506085285843,642
1506085285851,642
1506085285859,639
1506085285867,629
1506085285876,620
1506085285884,605
1506085285892,590
1506085285900,576
1506085285908,559
1506085285916,547
1506085285925,534
1506085285933,524
1506085285941,515
1506085285949,506
1506085285954,501
1506085285962,495
1506085285970,490
1506085285978,488
1506085285986,481
1506085285994,480
1506085286002,478
1506085286011,477
1506085286019,479
1506085286027,479
1506085286035,483
1506085286043,485
1506085286052,488
1506085286060,492
1506085286068,494
1506085286076,498
1506085286084,499
1506085286093,499
1506085286101,501
1506085286109,499
1506085286113,499
1506085286121,497
1506085286129,494
1506085286137,492
1506085286146,488
1506085286154,487
1506085286162,484
1506085286170,481
1506085286178,482
1506085286186,478
1506085286195,479
1506085286203,478
1506085286211,478
1506085286219,480
1506085286228,479
1506085286236,482
1506085286244,482
1506085286252,483
1506085286260,485
1506085286268,484
1506085286274,486
1506085286282,487
1506085286290,486
1506085286298,488
1506085286306,485
1506085286314,487
1506085286322,486
1506085286330,485
1506085286338,487
1506085286346,484
1506085286355,485
1506085286363,484
1506085286371,483
1506085286379,484
1506085286387,483
1506085286396,485
1506085286404,487
1506085286412,489
1506085286420,496
1506085286428,503
1506085286432,516
1506085286441,531
1506085286449,549
1506085286457,571
1506085286465,588
1506085286473,609
1506085286482,626
1506085286490,639
1506085286498,649
1506085286506,652
1506085286515,652
1506085286523,647
1506085286531,637
1506085286539,627
1506085286547,611
1506085286555,598
1506085286564,582
1506085286572,566
1506085286580,555
1506085286588,541
1506085286592,531
1506085286600,523
1506085286609,514
1506085286617,510
1506085286625,503
1506085286634,499
1506085286641,495
1506085286649,490
1506085286658,488
1506085286666,481
1506085286674,480
1506085286682,478
1506085286690,476
1506085286699,478
1506085286707,477
1506085286715,479
1506085286723,481
1506085286731,483
1506085286740,487
1506085286748,488
1506085286755,492
1506085286760,493
1506085286768,493
1506085286776,496
1506085286784,496
1506085286793,499
1506085286802,497
1506085286811,493
1506085286819,493
1506085286826,490
1506085286835,488
1506085286843,485
1506085286851,483
1506085286859,482
1506085286867,479
1506085286876,480
1506085286883,480
1506085286891,480
1506085286900,483
1506085286907,483
1506085286915,484
1506085286920,486
1506085286928,485
1506085286936,488
1506085286945,487
1506085286953,489
1506085286961,488
1506085286969,487
1506085286977,488
1506085286985,486
1506085286995,486
1506085287002,486
1506085287010,484
1506085287018,485
1506085287026,482
1506085287035,482
1506085287043,482
1506085287051,482
1506085287059,483
1506085287067,483
1506085287075,488
1506085287080,495
1506085287088,502
1506085287096,518
1506085287104,534
1506085287112,553
1506085287121,576
1506085287129,597
1506085287137,619
1506085287145,638
1506085287153,654
1506085287162,665
1506085287170,668
1506085287178,671
1506085287186,665
1506085287194,657
1506085287202,647
1506085287210,631
1506085287218,617
1506085287227,599
1506085287235,586
1506085287239,572
1506085287247,559
1506085287256,550
1506085287264,540
1506085287273,533
1506085287280,527
1506085287288,518
1506085287297,514
1506085287304,506
1506085287314,499
1506085287322,494
1506085287330,487
1506085287339,484
1506085287347,478
1506085287355,476
1506085287364,475
1506085287371,474
1506085287379,476
1506085287387,477
1506085287395,480
1506085287400,484
1506085287408,486
1506085287416,490
1506085287424,491
1506085287432,493
1506085287441,494
1506085287449,495
1506085287457,496
1506085287465,495
1506085287473,494
1506085287481,493
1506085287490,490
1506085287498,490
1506085287506,487
1506085287514,486
1506085287522,486
1506085287531,484
1506085287539,484
1506085287548,483
1506085287555,483
1506085287559,485
1506085287567,483
1506085287576,486
1506085287584,486
1506085287592,488
1506085287600,490
1506085287609,490
1506085287616,492
1506085287625,492
1506085287633,493
1506085287641,493
1506085287649,492
1506085287657,493
1506085287665,491
1506085287673,492
1506085287682,492
1506085287690,492
1506085287699,495
1506085287707,495
1506085287715,498
1506085287719,502
1506085287727,506
1506085287735,516
1506085287743,528
1506085287751,546
1506085287760,568
1506085287768,590
1506085287776,617
1506085287784,639
1506085287792,660
1506085287800,678
1506085287809,689
1506085287817,696
1506085287825,694
1506085287833,688
1506085287841,679
1506085287849,664
1506085287858,648
1506085287866,628
1506085287874,609
1506085287878,592
1506085287886,573
1506085287894,560
1506085287902,547
1506085287912,536
1506085287920,532
1506085287928,520
1506085287936,513
1506085287944,505
1506085287953,497
1506085287961,491
1506085287969,484
1506085287977,480
1506085287985,475
1506085287993,473
1506085288002,473
1506085288010,471
1506085288018,475
1506085288026,478
1506085288035,481
1506085288038,485
1506085288047,488
1506085288055,494
1506085288063,496
1506085288071,500
1506085288080,503
1506085288088,502
1506085288096,505
1506085288104,503
1506085288112,502
1506085288120,503
1506085288128,499
1506085288136,498
1506085288145,496
1506085288153,493
1506085288161,492
1506085288169,488
1506085288177,488
1506085288185,486
1506085288193,485
1506085288197,486
1506085288206,483
1506085288214,484
1506085288222,485
1506085288230,484
1506085288239,486
1506085288247,485
1506085288255,487
1506085288263,487
1506085288272,488
1506085288280,489
1506085288288,488
1506085288297,488
1506085288305,487
1506085288313,485
1506085288321,486
1506085288329,485
1506085288337,486
1506085288346,487
1506085288354,490
1506085288362,498
1506085288366,508
1506085288375,526
1506085288382,548
1506085288391,574
1506085288399,603
1506085288407,632
1506085288415,663
1506085288423,689
1506085288431,711
1506085288440,728
1506085288448,733
1506085288456,736
1506085288464,729
1506085288472,716
1506085288480,701
1506085288489,679
1506085288497,657
1506085288505,634
1506085288513,612
1506085288521,594
1506085288526,575
1506085288534,563
1506085288542,549
1506085288550,538
1506085288559,529
1506085288567,518
1506085288575,510
1506085288583,501
1506085288591,491
1506085288599,484
1506085288607,476
1506085288616,471
1506085288624,467
1506085288632,465
1506085288640,466
1506085288648,466
1506085288657,471
1506085288665,476
1506085288673,479
1506085288681,486
1506085288685,489
1506085288693,495
1506085288701,498
1506085288710,501
1506085288718,505
1506085288726,504
1506085288734,506
1506085288742,504
1506085288750,501
1506085288759,501
1506085288768,497
1506085288776,494
1506085288784,491
1506085288792,487
1506085288800,486
1506085288808,483
1506085288817,483
1506085288825,480
1506085288833,480
1506085288841,482
1506085288846,479
1506085288853,480
1506085288861,480
1506085288870,479
1506085288878,481
1506085288886,480
1506085288894,481
1506085288902,481
1506085288910,481
1506085288919,482
1506085288927,479
1506085288935,480
1506085288943,478
1506085288951,475
1506085288960,476
1506085288968,474
1506085288976,476
1506085288984,479
1506085288992,484
1506085289000,496
1506085289004,512
1506085289013,536
1506085289021,563
1506085289029,595
1506085289037,631
1506085289045,661
1506085289054,692
1506085289062,715
1506085289070,732
1506085289078,745
1506085289086,747
1506085289094,745
1506085289102,736
1506085289111,722
1506085289119,706
1506085289127,685
1506085289135,667
1506085289143,647
1506085289151,628
1506085289160,612
1506085289164,594
1506085289172,580
1506085289180,568
1506085289188,556
1506085289197,545
1506085289205,531
1506085289213,521
1506085289221,508
1506085289229,495
1506085289237,484
1506085289246,470
1506085289254,462
1506085289263,453
1506085289271,446
1506085289279,444
1506085289287,442
1506085289296,443
1506085289304,444
1506085289312,447
1506085289320,451
1506085289324,454
1506085289333,459
1506085289341,462
1506085289350,465
1506085289358,468
1506085289365,467
1506085289373,468
1506085289382,469
1506085289390,467
1506085289398,468
1506085289406,465
1506085289414,465
1506085289422,464
1506085289431,461
1506085289439,462
1506085289447,459
1506085289455,461
1506085289463,461
1506085289471,460
1506085289479,463
1506085289484,462
1506085289492,464
1506085289500,464
1506085289509,463
1506085289516,466
1506085289526,464
1506085289533,466
1506085289542,466
1506085289549,464
1506085289557,466
1506085289566,464
1506085289574,463
1506085289582,463
1506085289590,461
1506085289598,462
1506085289607,462
1506085289615,465
1506085289623,469
1506085289631,475
1506085289639,489
1506085289643,506
1506085289652,532
1506085289660,562
1506085289668,594
1506085289676,632
1506085289684,666
1506085289692,699
1506085289700,726
1506085289709,745
1506085289717,758
1506085289725,760
1506085289733,758
1506085289741,748
1506085289749,732
1506085289758,716
1506085289766,692
1506085289774,670
1506085289782,649
1506085289790,626
1506085289798,609
1506085289806,591
1506085289811,577
1506085289819,563
1506085289828,548
1506085289836,537
1506085289845,521
1506085289853,507
1506085289861,494
1506085289869,477
1506085289878,466
1506085289886,452
1506085289894,444
1506085289902,438
1506085289910,433
1506085289918,434
1506085289927,434
1506085289935,439
1506085289943,443
1506085289951,445
1506085289959,453
1506085289967,457
1506085289971,461
1506085289980,465
1506085289988,466
1506085289996,468
1506085290004,467
1506085290012,467
1506085290020,466
1506085290029,463
1506085290037,463
1506085290045,459
1506085290054,458
1506085290061,457
1506085290070,454
1506085290079,453
1506085290086,452
1506085290094,452
1506085290102,452
1506085290110,451
1506085290118,452
1506085290126,452
1506085290131,452
1506085290139,453
1506085290147,452
1506085290156,456
1506085290164,456
1506085290172,458
1506085290181,461
1506085290189,461
1506085290197,464
1506085290205,464
1506085290213,465
1506085290221,466
1506085290230,464
1506085290239,465
1506085290246,462
1506085290254,462
1506085290262,461
1506085290271,458
1506085290278,457
1506085290286,454
1506085290291,452
1506085290299,452
1506085290307,451
1506085290316,453
1506085290323,453
1506085290332,459
1506085290340,468
1506085290348,481
1506085290356,503
1506085290364,529
1506085290372,563
1506085290381,601
1506085290389,640
1506085290398,681
1506085290406,722
1506085290414,754
1506085290422,778
1506085290430,791
1506085290438,797
1506085290447,794
1506085290451,782
1506085290459,767
1506085290467,743
1506085290475,717
1506085290483,687
1506085290491,660
1506085290500,636
1506085290508,612
1506085290516,594
1506085290524,576
1506085290532,562
1506085290541,549
1506085290549,533
1506085290557,521
1506085290565,505
1506085290573,489
1506085290581,475
1506085290591,457
1506085290598,449
1506085290606,438
1506085290610,430
1506085290618,424
1506085290627,424
1506085290635,427
1506085290643,425
1506085290651,428
1506085290659,433
1506085290667,435
1506085290676,442
1506085290684,447
1506085290692,451
1506085290700,455
1506085290708,454
1506085290716,458
1506085290725,457
1506085290733,456
1506085290741,456
1506085290749,452
1506085290757,453
1506085290765,451
1506085290770,450
1506085290778,451
1506085290786,448
1506085290795,448
1506085290802,447
1506085290811,447
1506085290819,447
1506085290827,447
1506085290835,449
1506085290843,447
1506085290852,446
1506085290860,448
1506085290868,446
1506085290876,448
1506085290884,448
1506085290892,453
1506085290901,455
1506085290909,454
1506085290917,453
1506085290925,448
1506085290929,445
1506085290937,444
1506085290946,441
1506085290954,442
1506085290962,441
1506085290970,441
1506085290979,443
1506085290986,444
1506085290995,446
1506085291003,446
1506085291011,447
1506085291019,448
1506085291027,448
1506085291036,452
1506085291045,452
1506085291053,453
1506085291061,455
1506085291069,454
1506085291078,457
1506085291085,457
1506085291090,459
1506085291098,461
1506085291106,460
1506085291115,462
1506085291122,462
1506085291131,463
1506085291139,465
1506085291147,463
1506085291155,466
1506085291163,466
1506085291172,466
1506085291180,468
1506085291188,467
1506085291196,468
1506085291204,467
1506085291212,466
1506085291221,467
1506085291229,464
1506085291237,466
1506085291245,464
1506085291249,466
1506085291257,473
1506085291265,480
1506085291273,497
1506085291282,520
1506085291290,547
1506085291299,583
1506085291307,619
1506085291315,660
1506085291323,699
1506085291331,733
1506085291339,760
1506085291348,776
1506085291356,787
1506085291364,786
1506085291372,776
1506085291380,761
1506085291388,736
1506085291396,713
1506085291405,685
1506085291409,657
1506085291417,632
1506085291425,605
1506085291433,586
1506085291441,566
1506085291450,549
1506085291458,538
1506085291466,523
1506085291474,512
1506085291482,501
1506085291491,489
1506085291499,480
1506085291507,468
1506085291515,460
1506085291523,452
1506085291531,446
1506085291540,444
1506085291548,440
1506085291556,442
1506085291565,443
1506085291573,445
1506085291577,451
1506085291585,453
1506085291593,458
1506085291601,462
1506085291610,463
1506085291618,466
1506085291626,465
1506085291635,467
1506085291642,466
1506085291650,465
1506085291659,466
1506085291667,462
1506085291675,461
1506085291684,459
1506085291692,456
1506085291700,456
1506085291708,452
1506085291716,452
1506085291724,450
1506085291732,449
1506085291737,451
1506085291745,449
1506085291753,452
1506085291761,452
1506085291769,453
1506085291777,455
1506085291786,456
1506085291794,458
1506085291802,460
1506085291810,462
1506085291818,462
1506085291827,460
1506085291835,462
1506085291843,461
1506085291851,461
1506085291859,464
1506085291867,462
1506085291876,465
1506085291884,466
1506085291892,464
1506085291896,465
1506085291904,464
1506085291912,464
1506085291921,464
1506085291929,463
1506085291937,465
1506085291945,463
1506085291953,464
1506085291961,465
1506085291970,463
1506085291978,465
1506085291986,464
1506085291994,463
1506085292002,463
1506085292010,462
1506085292019,462
1506085292027,460
1506085292035,461
1506085292043,461
1506085292051,460
1506085292056,463
1506085292065,464
1506085292072,470
1506085292080,480
1506085292088,493
1506085292097,513
1506085292105,537
1506085292113,567
1506085292121,599
1506085292129,630
1506085292138,663
1506085292146,689
1506085292155,711
1506085292163,725
1506085292171,731
1506085292179,730
1506085292187,721
1506085292196,708
1506085292204,690
1506085292211,666
1506085292217,645
1506085292224,621
1506085292233,599
1506085292241,579
1506085292248,559
1506085292256,545
1506085292265,530
1506085292273,518
1506085292281,507
1506085292289,496
1506085292297,487
1506085292306,476
1506085292315,468
1506085292323,459
1506085292331,450
1506085292339,446
1506085292347,440
1506085292355,438
1506085292363,436
1506085292371,435
1506085292375,439
1506085292384,439
1506085292392,444
1506085292400,448
1506085292409,450
1506085292417,455
1506085292425,457
1506085292434,459
1506085292442,461
1506085292450,460
1506085292458,461
1506085292466,458
1506085292475,458
1506085292482,456
1506085292490,452
1506085292499,452
1506085292507,449
1506085292515,448
1506085292523,447
1506085292531,444
1506085292536,444
1506085292544,442
1506085292552,443
1506085292560,444
1506085292568,444
1506085292576,446
1506085292584,446
1506085292592,448
1506085292601,451
1506085292609,451
1506085292617,455
1506085292625,455
1506085292634,456
1506085292642,457
1506085292650,456
1506085292658,458
1506085292666,456
1506085292674,457
1506085292682,459
1506085292690,457
1506085292695,460
1506085292703,457
1506085292711,458
1506085292720,459
1506085292728,458
1506085292736,459
1506085292744,457
1506085292752,457
1506085292761,458
1506085292769,457
1506085292777,458
1506085292785,457
1506085292794,457
1506085292801,458
1506085292810,456
1506085292818,459
1506085292826,457
1506085292834,458
1506085292843,461
1506085292850,462
1506085292855,469
1506085292863,477
1506085292871,490
1506085292879,508
1506085292887,529
1506085292895,559
1506085292903,585
1506085292912,615
1506085292920,645
1506085292929,667
1506085292937,687
1506085292945,698
1506085292953,703
1506085292963,702
1506085292970,692
1506085292978,680
1506085292986,660
1506085292995,640
1506085293003,618
1506085293010,594
1506085293015,576
1506085293023,556
1506085293031,538
1506085293039,525
1506085293048,512
1506085293056,504
1506085293064,494
1506085293072,487
1506085293080,481
1506085293089,471
1506085293097,467
1506085293104,460
1506085293113,454
1506085293121,451
1506085293129,445
1506085293137,446
1506085293146,442
1506085293154,441
1506085293162,441
1506085293170,440
1506085293175,444
1506085293183,445
1506085293191,448
1506085293199,451
1506085293207,451
1506085293216,455
1506085293224,456
1506085293232,457
1506085293240,460
1506085293248,458
1506085293257,460
1506085293265,458
1506085293273,456
1506085293281,456
1506085293289,452
1506085293297,453
1506085293305,451
1506085293315,450
1506085293322,451
1506085293330,449
1506085293334,449
1506085293342,449
1506085293350,449
1506085293358,450
1506085293367,449
1506085293375,452
1506085293383,451
1506085293392,452
1506085293400,454
1506085293408,452
1506085293416,455
1506085293424,454
1506085293432,454
1506085293440,456
1506085293448,455
1506085293456,457
1506085293465,457
1506085293474,457
1506085293482,458
1506085293490,457
1506085293498,459
1506085293502,459
1506085293510,459
1506085293518,461
1506085293527,460
1506085293535,461
1506085293543,462
1506085293551,461
1506085293559,462
1506085293567,461
1506085293575,463
1506085293584,462
1506085293592,462
1506085293600,463
1506085293608,460
1506085293616,462
1506085293624,462
1506085293633,463
1506085293641,467
1506085293650,471
1506085293657,481
1506085293662,493
1506085293670,508
1506085293678,530
1506085293686,552
1506085293694,579
1506085293702,603
1506085293710,625
1506085293718,647
1506085293727,658
1506085293735,669
1506085293744,670
1506085293752,666
1506085293760,658
1506085293768,643
1506085293776,628
1506085293784,609
1506085293793,589
1506085293801,572
1506085293809,551
1506085293817,537
1506085293822,522
1506085293829,510
1506085293838,502
1506085293846,493
1506085293854,488
1506085293862,481
1506085293870,475
1506085293878,472
1506085293886,465
1506085293895,463
1506085293903,459
1506085293911,455
1506085293919,455
1506085293927,453
1506085293936,454
1506085293944,455
1506085293952,456
1506085293961,459
1506085293969,460
1506085293977,464
1506085293981,465
1506085293989,467
1506085293998,470
1506085294006,469
1506085294014,471
1506085294022,471
1506085294030,469
1506085294039,470
1506085294047,467
1506085294055,466
1506085294063,464
1506085294071,461
1506085294079,461
1506085294088,457
1506085294096,458
1506085294104,457
1506085294112,456
1506085294120,458
1506085294128,456
1506085294136,458
1506085294141,460
1506085294149,460
1506085294157,464
1506085294165,464
1506085294174,466
1506085294182,466
1506085294190,466
1506085294198,468
1506085294206,466
1506085294215,468
1506085294222,469
1506085294231,467
1506085294239,470
1506085294247,469
1506085294255,470
1506085294263,470
1506085294271,469
1506085294280,470
1506085294288,468
1506085294296,469
1506085294300,469
1506085294308,466
1506085294317,468
1506085294325,465
1506085294333,466
1506085294341,466
1506085294349,464
1506085294357,467
1506085294366,467
1506085294374,470
1506085294382,473
1506085294390,478
1506085294398,490
1506085294407,502
1506085294415,520
1506085294423,541
1506085294432,562
1506085294440,585
1506085294448,604
1506085294456,623
1506085294460,636
1506085294468,644
1506085294477,649
1506085294485,644
1506085294493,639
1506085294501,626
1506085294509,611
1506085294518,597
1506085294526,578
1506085294534,561
1506085294542,545
1506085294550,528
1506085294558,517
1506085294567,505
1506085294575,496
1506085294583,487
1506085294591,479
1506085294599,475
1506085294607,468
1506085294616,464
1506085294620,461
1506085294628,457
1506085294637,457
1506085294645,456
1506085294653,457
1506085294661,460
1506085294669,461
1506085294677,466
1506085294685,467
1506085294694,471
1506085294702,474
1506085294710,475
1506085294718,479
1506085294726,478
1506085294735,480
1506085294743,481
1506085294751,480
1506085294759,480
1506085294767,478
1506085294775,478
1506085294779,476
1506085294788,473
1506085294796,473
1506085294804,470
1506085294812,469
1506085294820,468
1506085294828,465
1506085294837,466
1506085294845,464
1506085294853,465
1506085294862,466
1506085294870,465
1506085294878,468
1506085294887,466
1506085294895,468
1506085294903,469
1506085294911,469
1506085294919,472
1506085294927,472
1506085294935,473
1506085294940,475
1506085294948,474
1506085294956,476
1506085294964,476
1506085294972,477
1506085294981,478
1506085294989,477
1506085294997,478
1506085295005,476
1506085295013,477
1506085295022,477
1506085295030,475
1506085295038,477
1506085295046,475
1506085295054,474
1506085295062,475
1506085295071,473
1506085295079,474
1506085295087,473
1506085295095,474
1506085295099,474
1506085295108,472
1506085295116,475
1506085295124,476
1506085295132,480
1506085295140,487
1506085295148,495
1506085295157,511
1506085295165,527
1506085295173,547
1506085295181,571
1506085295189,593
1506085295197,616
1506085295205,634
1506085295214,649
1506085295222,660
1506085295230,663
1506085295238,663
1506085295246,657
1506085295254,647
1506085295259,635
1506085295267,618
1506085295275,603
1506085295284,585
1506085295291,568
1506085295300,552
1506085295309,537
1506085295316,525
1506085295324,514
1506085295333,506
1506085295341,500
1506085295349,492
1506085295357,489
1506085295365,483
1506085295374,479
1506085295382,476
1506085295390,471
1506085295398,471
1506085295407,466
1506085295414,464
1506085295422,464
1506085295427,461
1506085295435,463
1506085295443,464
1506085295451,464
1506085295460,467
1506085295468,467
1506085295476,471
1506085295485,471
1506085295493,474
1506085295501,477
1506085295509,476
1506085295517,478
1506085295526,476
1506085295534,476
1506085295542,476
1506085295550,473
1506085295558,473
1506085295566,471
1506085295575,470
1506085295583,470
1506085295587,468
1506085295595,468
1506085295603,466
1506085295611,465
1506085295619,467
1506085295627,464
1506085295636,467
1506085295644,467
1506085295652,468
1506085295661,470
1506085295669,469
1506085295677,472
1506085295685,471
1506085295694,473
1506085295702,476
1506085295710,474
1506085295718,475
1506085295726,475
1506085295734,474
1506085295742,476
1506085295746,474
1506085295754,476
1506085295763,475
1506085295771,475
1506085295779,476
1506085295787,474
1506085295795,477
1506085295804,476
1506085295812,475
1506085295820,476
1506085295828,473
1506085295836,475
1506085295846,474
1506085295853,473
1506085295861,477
1506085295869,474
1506085295877,475
1506085295886,475
1506085295893,474
1506085295901,478
1506085295906,478
1506085295914,482
1506085295922,487
1506085295930,495
1506085295939,509
1506085295947,522
1506085295955,542
1506085295963,562
1506085295971,582
1506085295980,605
1506085295988,621
1506085295996,638
1506085296005,649
1506085296012,654
1506085296021,655
1506085296029,650
1506085296037,642
1506085296045,630
1506085296053,615
1506085296061,601
1506085296065,583
1506085296074,569
1506085296082,553
1506085296091,539
1506085296099,529
1506085296107,517
1506085296115,510
1506085296123,503
1506085296131,496
1506085296139,493
1506085296148,485
1506085296156,483
1506085296164,479
1506085296172,475
1506085296180,475
1506085296188,472
1506085296197,472
1506085296205,472
1506085296213,472
1506085296221,473
1506085296226,473
1506085296234,476
1506085296242,478
1506085296250,479
1506085296259,482
1506085296267,481
1506085296275,483
1506085296283,484
1506085296291,482
1506085296299,484
1506085296307,483
1506085296316,482
1506085296324,480
1506085296332,478
1506085296340,477
1506085296348,475
1506085296357,475
1506085296365,474
1506085296373,472
1506085296381,473
1506085296385,471
1506085296393,471
1506085296401,471
1506085296410,472
1506085296418,473
1506085296426,472
1506085296434,474
1506085296442,474
1506085296451,473
1506085296459,476
1506085296467,475
1506085296475,477
1506085296483,479
1506085296492,479
1506085296500,482
1506085296508,480
1506085296516,483
1506085296524,483
1506085296533,481
1506085296541,482
1506085296545,480
1506085296553,481
1506085296561,481
1506085296569,479
1506085296577,480
1506085296586,477
1506085296594,477
1506085296602,478
1506085296610,476
1506085296618,477
1506085296626,475
1506085296636,475
1506085296644,474
1506085296652,476
1506085296660,480
1506085296668,483
1506085296676,492
1506085296684,503
1506085296692,516
1506085296701,534
1506085296705,551
1506085296713,572
1506085296721,591
1506085296729,607
1506085296738,621
1506085296746,628
1506085296754,634
1506085296762,634
1506085296770,629
1506085296778,623
1506085296786,610
1506085296795,598
1506085296803,583
1506085296812,567
1506085296819,555
1506085296828,540
1506085296836,529
1506085296844,518
1506085296852,508
1506085296860,502
1506085296865,494
1506085296873,489
1506085296881,485
1506085296889,480
1506085296898,478
1506085296905,476
1506085296913,474
1506085296921,475
1506085296930,475
1506085296938,479
1506085296947,479
1506085296955,483
1506085296963,485
1506085296971,486
1506085296980,490
1506085296988,491
1506085296996,494
1506085297004,496
1506085297012,495
1506085297020,497
1506085297025,496
1506085297033,496
1506085297041,495
1506085297049,492
1506085297057,492
1506085297065,487
1506085297074,486
1506085297082,485
1506085297090,481
1506085297098,481
1506085297106,478
1506085297115,478
1506085297123,478
1506085297131,477
1506085297139,476
1506085297147,475
1506085297155,477
1506085297163,478
1506085297171,478
1506085297180,481
1506085297184,481
1506085297192,482
1506085297200,484
1506085297208,484
1506085297217,488
1506085297225,490
1506085297233,490
1506085297241,490
1506085297249,489
1506085297257,490
1506085297265,487
1506085297274,487
1506085297282,488
1506085297290,486
1506085297298,486
1506085297306,484
1506085297315,483
1506085297324,484
1506085297332,483
1506085297340,483
1506085297348,480
1506085297352,480
1506085297360,480
1506085297368,479
1506085297376,483
1506085297385,486
1506085297393,494
1506085297401,505
1506085297409,517
1506085297417,535
1506085297425,553
1506085297434,574
1506085297442,594
1506085297450,610
1506085297458,627
1506085297466,636
1506085297474,644
1506085297482,648
1506085297492,643
1506085297500,638
1506085297508,627
1506085297512,614
1506085297520,600
1506085297528,584
1506085297536,571
1506085297544,554
1506085297553,541
1506085297561,530
1506085297569,519
1506085297577,512
1506085297585,504
1506085297594,499
1506085297602,495
1506085297610,490
1506085297618,487
1506085297627,484
1506085297635,482
1506085297643,482
1506085297651,478
1506085297659,479
1506085297667,478
1506085297672,480
1506085297680,481
1506085297688,481
1506085297696,484
1506085297704,486
1506085297712,487
1506085297720,489
1506085297728,488
1506085297736,490
1506085297745,490
1506085297753,490
1506085297762,491
1506085297770,488
1506085297778,489
1506085297786,485
1506085297795,483
1506085297802,483
1506085297811,479
1506085297819,479
1506085297826,478
1506085297831,477
1506085297839,478
1506085297847,477
1506085297855,478
1506085297864,478
1506085297872,478
1506085297880,479
1506085297889,479
1506085297897,481
1506085297905,480
1506085297913,480
1506085297921,483
1506085297929,482
1506085297938,482
1506085297946,482
1506085297954,482
1506085297962,483
1506085297970,481
1506085297978,484
1506085297986,483
1506085297991,483
1506085298000,485
1506085298007,484
1506085298016,485
1506085298024,484
1506085298032,484
1506085298040,487
1506085298048,485
1506085298056,487
1506085298064,485
1506085298073,484
1506085298081,485
1506085298089,481
1506085298097,482
1506085298105,481
1506085298114,481
1506085298122,486
1506085298130,490
1506085298138,500
1506085298146,512
1506085298150,528
1506085298158,545
1506085298167,561
1506085298175,583
1506085298183,600
1506085298191,615
1506085298199,629
1506085298208,635
1506085298216,641
1506085298224,640
1506085298232,635
1506085298240,626
1506085298248,615
1506085298257,603
1506085298265,587
1506085298273,572
1506085298281,559
1506085298290,543
1506085298298,533
1506085298306,522
1506085298310,513
1506085298319,508
1506085298327,500
1506085298335,498
1506085298343,493
1506085298351,490
1506085298361,489
1506085298368,484
1506085298376,484
1506085298384,483
1506085298392,480
1506085298400,482
1506085298409,480
1506085298417,482
1506085298425,483
1506085298433,483
1506085298441,486
1506085298449,486
1506085298457,490
1506085298465,490
1506085298470,490
1506085298478,491
1506085298486,490
1506085298494,491
1506085298502,490
1506085298511,489
1506085298519,490
1506085298528,486
1506085298535,486
1506085298544,484
1506085298552,483
1506085298561,484
1506085298569,482
1506085298576,483
1506085298585,483
1506085298592,481
1506085298601,480
1506085298609,478
1506085298617,479
1506085298625,479
1506085298629,478
1506085298638,481
1506085298646,480
1506085298654,482
1506085298662,483
1506085298670,483
1506085298678,485
1506085298687,484
1506085298696,486
1506085298703,485
1506085298711,484
1506085298719,486
1506085298729,485
1506085298736,485
1506085298746,486
1506085298753,485
1506085298762,487
1506085298770,485
1506085298778,485
1506085298786,484
1506085298790,482
1506085298798,483
1506085298806,481
1506085298815,483
1506085298822,483
1506085298831,484
1506085298839,488
1506085298847,491
1506085298855,499
1506085298863,510
1506085298871,522
1506085298880,540
1506085298889,555
1506085298896,575
1506085298904,591
1506085298912,605
1506085298921,619
1506085298929,625
1506085298937,630
1506085298945,630
1506085298949,625
1506085298957,618
1506085298965,606
1506085298974,594
1506085298982,580
1506085298990,564
1506085298998,552
1506085299006,537
1506085299015,526
1506085299023,515
1506085299031,504
1506085299039,499
1506085299047,491
1506085299056,487
1506085299063,483
1506085299072,480
1506085299080,480
1506085299088,477
1506085299096,477
1506085299104,478
1506085299112,477
1506085299116,482
1506085299125,482
1506085299133,485
1506085299141,489
1506085299149,490
1506085299157,493
1506085299165,494
1506085299174,497
1506085299182,498
1506085299190,497
1506085299198,499
1506085299206,497
1506085299215,497
1506085299223,495
1506085299231,492
1506085299239,491
1506085299247,487
1506085299256,486
1506085299265,483
1506085299273,480
1506085299277,481
1506085299285,478
1506085299294,477
1506085299302,478
1506085299310,475
1506085299318,477
1506085299326,478
1506085299335,478
1506085299343,481
1506085299351,481
1506085299359,484
1506085299367,483
1506085299376,486
1506085299384,488
1506085299392,487
1506085299400,491
1506085299408,490
1506085299417,491
1506085299424,492
1506085299432,491
1506085299437,492
1506085299445,490
1506085299453,490
1506085299461,489
1506085299470,488
1506085299478,488
1506085299486,486
1506085299494,487
1506085299502,487
1506085299511,484
1506085299519,487
1506085299527,488
1506085299535,492
1506085299543,501
1506085299551,509
1506085299560,525
1506085299568,539
1506085299576,558
1506085299584,578
1506085299592,593
1506085299597,609
1506085299605,620
1506085299613,630
1506085299621,634
1506085299629,633
1506085299637,630
1506085299646,621
1506085299654,611
1506085299662,600
1506085299670,583
1506085299678,571
1506085299686,558
1506085299695,545
1506085299703,534
1506085299711,523
1506085299719,516
1506085299727,508
1506085299736,504
1506085299744,500
1506085299752,494
1506085299756,493
1506085299764,488
1506085299772,486
1506085299781,486
1506085299789,484
1506085299797,486
1506085299805,485
1506085299814,487
1506085299822,489
1506085299830,489
1506085299838,493
1506085299846,494
1506085299855,496
1506085299862,497
1506085299871,495
1506085299879,497
1506085299887,497
1506085299895,496
1506085299903,495
1506085299911,492
1506085299916,493
1506085299924,489
1506085299932,488
1506085299940,486
1506085299948,484
1506085299957,483
1506085299965,480
1506085299973,479
1506085299981,479
1506085299989,477
1506085299997,478
1506085300006,477
1506085300014,478
1506085300022,479
1506085300030,479
1506085300038,481
1506085300046,481
1506085300055,482
1506085300063,485
1506085300071,484
1506085300075,488
1506085300083,489
1506085300091,489
1506085300100,491
1506085300108,489
1506085300116,491
1506085300124,490
1506085300132,490
1506085300142,490
1506085300150,488
1506085300158,489
1506085300166,489
1506085300175,488
1506085300182,489
1506085300191,486
1506085300199,487
1506085300207,486
1506085300215,485
1506085300223,485
1506085300231,484
1506085300236,488
1506085300244,490
1506085300252,495
1506085300260,506
1506085300268,517
1506085300276,534
1506085300284,552
1506085300293,571
1506085300301,592
1506085300309,609
1506085300317,627
1506085300325,638
1506085300334,647
1506085300342,652
1506085300350,649
1506085300358,647
1506085300366,637
1506085300375,624
1506085300383,612
1506085300391,596
1506085300395,582
1506085300403,567
1506085300411,553
1506085300419,542
1506085300427,530
1506085300435,524
1506085300445,516
1506085300452,510
1506085300461,508
1506085300469,502
1506085300477,499
1506085300485,496
1506085300493,492
1506085300501,491
1506085300510,488
1506085300518,487
1506085300526,485
1506085300535,484
1506085300542,485
1506085300550,484
1506085300555,486
1506085300563,487
1506085300571,487
1506085300579,490
1506085300587,489
1506085300596,490
1506085300604,490
1506085300612,490
1506085300620,491
1506085300628,488
1506085300637,488
1506085300645,486
1506085300653,484
1506085300661,485
1506085300669,481
1506085300677,481
1506085300686,480
1506085300694,478
1506085300702,478
1506085300710,478
1506085300715,478
1506085300723,478
1506085300731,478
1506085300739,480
1506085300747,479
1506085300755,483
1506085300764,484
1506085300771,484
1506085300780,487
1506085300788,487
1506085300796,488
1506085300804,489
1506085300813,489
1506085300821,490
1506085300829,488
1506085300837,490
1506085300845,489
1506085300853,488
1506085300862,490
1506085300869,487
1506085300878,488
1506085300883,488
1506085300891,485
1506085300898,486
1506085300907,485
1506085300915,485
1506085300923,484
1506085300931,483
1506085300939,484
1506085300947,482
1506085300955,485
1506085300964,487
1506085300972,489
1506085300980,499
1506085300988,508
1506085300996,522
1506085301004,540
1506085301013,558
1506085301021,579
1506085301029,597
1506085301037,615
1506085301041,629
1506085301050,638
1506085301059,647
1506085301067,645
1506085301075,642
1506085301083,636
1506085301091,623
1506085301100,612
1506085301108,596
1506085301116,582
1506085301124,566
1506085301133,551
1506085301141,540
1506085301149,526
1506085301157,519
1506085301165,510
1506085301173,503
1506085301182,499
1506085301190,493
1506085301197,490
1506085301202,487
1506085301210,483
1506085301218,483
1506085301227,482
1506085301235,482
1506085301243,482
1506085301251,480
1506085301259,484
1506085301267,483
1506085301276,486
1506085301284,489
1506085301292,489
1506085301300,492
1506085301308,492
1506085301317,495
1506085301324,496
1506085301333,494
1506085301341,495
1506085301349,492
1506085301357,492
1506085301362,492
1506085301370,488
1506085301378,488
1506085301386,484
1506085301395,483
1506085301403,482
1506085301411,479
1506085301420,480
1506085301427,478
1506085301436,479
1506085301444,479
1506085301452,479
1506085301460,481
1506085301468,481
1506085301476,482
1506085301484,485
1506085301493,485
1506085301501,487
1506085301509,487
1506085301517,489
1506085301521,490
1506085301529,489
1506085301538,492
1506085301546,490
1506085301554,490
1506085301562,490
1506085301570,488
1506085301578,488
1506085301587,485
1506085301595,485
1506085301603,484
1506085301612,482
1506085301620,483
1506085301628,483
1506085301636,486
1506085301645,491
1506085301653,495
1506085301661,507
1506085301669,517
1506085301677,533
1506085301681,551
1506085301689,567
1506085301697,586
1506085301706,602
1506085301714,616
1506085301722,627
1506085301730,631
1506085301738,634
1506085301746,630
1506085301754,625
1506085301763,617
1506085301772,602
1506085301780,591
1506085301788,576
1506085301796,562
1506085301804,550
1506085301812,536
1506085301821,527
1506085301829,517
1506085301837,510
1506085301841,504
1506085301849,496
1506085301857,493
1506085301865,487
1506085301874,484
1506085301882,483
1506085301890,478
1506085301898,479
1506085301906,478
1506085301915,479
1506085301923,481
1506085301931,481
1506085301939,486
1506085301948,487
1506085301955,489
1506085301963,492
1506085301971,492
1506085301980,496
1506085301989,496
1506085301996,496
1506085302000,499
1506085302009,496
1506085302017,496
1506085302026,494
1506085302033,493
1506085302041,492
1506085302050,487
1506085302058,488
1506085302067,484
1506085302075,482
1506085302083,482
1506085302091,479
1506085302099,480
1506085302107,479
1506085302116,479
1506085302124,480
1506085302132,479
1506085302141,481
1506085302149,480
1506085302156,482
1506085302160,484
1506085302168,483
1506085302177,485
1506085302185,486
1506085302193,486
1506085302201,490
1506085302209,488
1506085302218,490
1506085302226,490
1506085302234,489
1506085302242,490
1506085302250,488
1506085302259,489
1506085302267,487
1506085302275,486
1506085302283,486
1506085302291,483
1506085302299,484
1506085302308,485
1506085302316,486
1506085302320,491
1506085302328,497
1506085302336,508
1506085302344,521
1506085302353,538
1506085302360,558
1506085302369,576
1506085302377,597
1506085302386,614
1506085302394,628
1506085302402,642
1506085302410,646
1506085302419,650
1506085302427,648
1506085302435,641
1506085302443,633
1506085302451,619
1506085302459,608
1506085302468,593
1506085302476,578
1506085302480,566
1506085302488,552
1506085302496,542
1506085302504,532
1506085302513,523
1506085302521,519
1506085302529,512
1506085302537,508
1506085302545,504
1506085302554,499
1506085302562,496
1506085302570,490
1506085302578,488
1506085302586,485
1506085302595,482
1506085302602,483
1506085302610,481
1506085302619,483
1506085302627,484
1506085302635,484
1506085302643,487
1506085302648,487
1506085302655,490
1506085302664,491
1506085302672,492
1506085302681,494
1506085302689,492
1506085302697,492
1506085302706,491
1506085302714,490
1506085302722,490
1506085302730,486
1506085302738,486
1506085302746,484
1506085302754,482
1506085302762,483
1506085302771,479
1506085302779,480
1506085302787,479
1506085302795,477
1506085302803,479
1506085302807,478
1506085302816,480
1506085302824,481
1506085302832,481
1506085302840,484
1506085302848,483
1506085302856,486
1506085302864,486
1506085302873,487
1506085302881,489
1506085302890,487
1506085302898,489
1506085302906,489
1506085302914,488
1506085302922,490
1506085302930,491
1506085302938,490
1506085302947,489
1506085302955,487
1506085302963,488
1506085302967,484
1506085302975,485
1506085302983,484
1506085302992,482
1506085303000,484
1506085303008,483
1506085303016,489
1506085303024,495
1506085303033,504
1506085303041,519
1506085303049,534
1506085303057,555
1506085303065,574
1506085303074,593
1506085303082,613
1506085303090,627
1506085303098,639
1506085303106,647
1506085303114,648
1506085303122,647
1506085303126,640
1506085303135,632
1506085303143,620
1506085303151,605
1506085303159,592
1506085303167,576
1506085303176,563
1506085303184,552
1506085303192,539
1506085303200,531
1506085303208,522
1506085303216,515
1506085303225,509
1506085303233,502
1506085303241,498
1506085303249,491
1506085303257,488
1506085303266,484
1506085303275,480
1506085303283,479
1506085303287,476
1506085303295,476
1506085303303,477
1506085303311,477
1506085303320,481
1506085303328,481
1506085303336,485
1506085303344,488
1506085303352,488
1506085303360,492
1506085303369,492
1506085303377,493
1506085303385,494
1506085303393,492
1506085303401,494
1506085303409,491
1506085303417,491
1506085303426,490
1506085303434,486
1506085303442,486
1506085303446,484
1506085303455,483
1506085303463,482
1506085303471,479
1506085303479,480
1506085303487,478
1506085303495,479
1506085303504,481
1506085303512,481
1506085303520,484
1506085303528,484
1506085303536,486
1506085303544,489
1506085303553,488
1506085303561,490
1506085303570,490
1506085303578,491
1506085303586,491
1506085303594,490
1506085303602,490
1506085303606,488
1506085303615,488
1506085303622,488
1506085303631,486
1506085303639,488
1506085303647,487
1506085303655,486
1506085303664,487
1506085303672,487
1506085303680,491
1506085303688,494
1506085303696,502
1506085303705,513
1506085303713,526
1506085303721,544
1506085303729,561
1506085303737,582
1506085303746,601
1506085303754,617
1506085303762,633
1506085303767,642
1506085303775,649
1506085303782,650
1506085303790,646
1506085303798,640
1506085303807,629
1506085303815,617
1506085303823,604
1506085303831,588
1506085303839,575
1506085303848,561
1506085303856,549
1506085303864,539
1506085303872,528
1506085303880,521
1506085303888,512
1506085303897,506
1506085303905,500
1506085303914,493
1506085303922,490
1506085303926,485
1506085303934,482
1506085303942,482
1506085303950,478
1506085303958,480
1506085303967,480
1506085303975,483
1506085303983,486
1506085303991,487
1506085304000,492
1506085304008,493
1506085304016,496
1506085304024,498
1506085304032,496
1506085304040,500
1506085304049,498
1506085304057,498
1506085304065,498
1506085304073,494
1506085304081,494
1506085304086,491
1506085304094,489
1506085304102,489
1506085304110,484
1506085304118,484
1506085304126,482
1506085304134,481
1506085304143,483
1506085304151,481
1506085304159,485
1506085304167,484
1506085304175,485
1506085304183,487
1506085304191,488
1506085304199,491
1506085304208,491
1506085304216,492
1506085304224,495
1506085304232,493
1506085304240,496
1506085304245,495
1506085304254,495
1506085304262,495
1506085304270,493
1506085304278,493
1506085304286,492
1506085304295,490
1506085304303,490
1506085304311,487
1506085304319,489
1506085304327,488
1506085304336,489
1506085304344,494
1506085304352,497
1506085304360,508
1506085304368,522
1506085304376,539
1506085304384,561
1506085304392,583
1506085304400,608
1506085304408,631
1506085304413,651
1506085304421,670
1506085304429,680
1506085304437,688
1506085304446,689
1506085304455,685
1506085304462,678
1506085304470,665
1506085304478,651
1506085304486,634
1506085304495,616
1506085304503,601
1506085304512,583
1506085304520,569
1506085304528,556
1506085304536,544
1506085304544,535
1506085304552,525
1506085304560,518
1506085304568,511
1506085304573,503
1506085304581,498
1506085304589,491
1506085304597,487
1506085304605,482
1506085304614,479
1506085304622,479
1506085304630,476
1506085304638,478
1506085304646,479
1506085304654,479
1506085304662,484
1506085304671,485
1506085304679,489
1506085304687,492
1506085304696,493
1506085304703,496
1506085304712,495
1506085304720,497
1506085304728,497
1506085304733,496
1506085304741,496
1506085304749,493
1506085304757,493
1506085304766,492
1506085304774,489
1506085304782,489
1506085304790,487
1506085304798,486
1506085304806,484
1506085304815,483
1506085304823,483
1506085304831,481
1506085304839,483
1506085304847,483
1506085304856,483
1506085304864,486
1506085304872,485
1506085304880,486
1506085304888,487
1506085304892,488
1506085304900,489
1506085304908,488
1506085304917,489
1506085304925,488
1506085304933,487
1506085304941,488
1506085304949,485
1506085304957,486
1506085304966,486
1506085304974,485
1506085304982,485
1506085304990,485
1506085304999,488
1506085305006,491
1506085305015,497
1506085305024,509
1506085305032,522
1506085305039,543
1506085305047,567
1506085305051,591
1506085305060,619
1506085305068,643
1506085305076,666
1506085305084,684
1506085305092,696
1506085305100,703
1506085305109,702
1506085305118,698
1506085305126,687
1506085305134,672
1506085305142,657
1506085305150,636
1506085305158,617
1506085305166,598
1506085305175,579
1506085305183,564
1506085305191,548
1506085305199,537
1506085305208,526
1506085305211,515
1506085305220,509
1506085305228,500
1506085305237,494
1506085305244,488
1506085305252,481
1506085305261,477
1506085305269,472
1506085305277,471
1506085305285,469
1506085305293,468
1506085305301,471
1506085305310,472
1506085305318,477
1506085305326,480
1506085305335,484
1506085305343,490
1506085305351,492
1506085305359,497
1506085305367,500
1506085305371,499
1506085305379,502
1506085305387,500
1506085305396,501
1506085305404,500
1506085305412,496
1506085305420,495
1506085305428,491
1506085305437,489
1506085305445,487
1506085305453,483
1506085305461,484
1506085305469,482
1506085305478,482
1506085305486,482
1506085305494,481
1506085305502,483
1506085305510,482
1506085305518,483
1506085305526,484
1506085305531,482
1506085305539,485
1506085305547,484
1506085305556,484
1506085305564,485
1506085305572,483
1506085305580,484
1506085305588,482
1506085305597,481
1506085305605,481
1506085305613,478
1506085305621,479
1506085305630,478
1506085305638,479
1506085305645,481
1506085305654,484
1506085305662,494
1506085305670,505
1506085305678,524
1506085305686,545
1506085305690,567
1506085305700,595
1506085305708,620
1506085305716,646
1506085305724,666
1506085305732,679
1506085305740,692
1506085305748,694
1506085305756,692
1506085305765,684
1506085305773,670
1506085305781,655
1506085305789,635
1506085305797,616
1506085305805,596
1506085305814,576
1506085305822,561
1506085305830,545
1506085305838,532
1506085305846,522
1506085305850,510
1506085305858,503
1506085305867,496
1506085305875,489
1506085305883,485
1506085305892,478
1506085305900,475
1506085305908,471
1506085305917,470
1506085305925,470
1506085305933,469
1506085305941,472
1506085305949,474
1506085305958,477
1506085305966,483
1506085305974,485
1506085305982,490
1506085305990,493
1506085305998,496
1506085306006,497
1506085306011,496
1506085306019,498
1506085306027,496
1506085306035,493
1506085306043,492
1506085306051,487
1506085306060,484
1506085306068,481
1506085306076,479
1506085306084,478
1506085306093,474
1506085306101,474
1506085306109,472
1506085306117,472
1506085306125,473
1506085306133,472
1506085306141,475
1506085306149,475
1506085306158,476
1506085306166,478
1506085306170,477
1506085306178,480
1506085306186,481
1506085306195,481
1506085306202,481
1506085306211,479
1506085306219,480
1506085306227,478
1506085306235,478
1506085306244,477
1506085306252,474
1506085306260,475
1506085306268,476
1506085306276,479
1506085306284,487
1506085306292,497
1506085306301,514
1506085306310,534
1506085306318,559
1506085306326,588
1506085306330,614
1506085306338,643
1506085306346,665
1506085306355,682
1506085306363,696
1506085306371,700
1506085306379,701
1506085306387,694
1506085306395,682
1506085306404,668
1506085306412,647
1506085306420,629
1506085306428,608
1506085306436,589
1506085306444,574
1506085306452,556
1506085306460,544
1506085306469,533
1506085306477,523
1506085306485,517
1506085306494,509
1506085306498,503
1506085306506,496
1506085306515,488
1506085306522,485
1506085306531,478
1506085306539,477
1506085306547,474
1506085306555,472
1506085306563,474
1506085306572,474
1506085306580,477
1506085306588,480
1506085306596,482
1506085306604,487
1506085306612,488
1506085306621,492
1506085306628,493
1506085306637,493
1506085306645,496
1506085306653,493
1506085306657,493
1506085306667,491
1506085306674,488
1506085306682,486
1506085306691,481
1506085306699,479
1506085306707,475
1506085306715,471
1506085306723,471
1506085306731,466
1506085306739,467
1506085306748,466
1506085306756,464
1506085306764,466
1506085306772,464
1506085306780,466
1506085306788,466
1506085306797,466
1506085306805,467
1506085306813,466
1506085306817,468
1506085306825,468
1506085306833,466
1506085306842,467
1506085306850,465
1506085306858,465
1506085306866,465
1506085306874,465
1506085306884,469
1506085306891,474
1506085306900,483
1506085306908,497
1506085306916,515
1506085306924,539
1506085306932,565
1506085306940,595
1506085306948,623
1506085306956,649
1506085306964,673
1506085306972,689
1506085306977,700
1506085306985,705
1506085306993,701
1506085307001,694
1506085307009,679
1506085307017,663
1506085307026,644
1506085307034,622
1506085307043,604
1506085307050,583
1506085307059,568
1506085307067,554
1506085307075,541
1506085307083,531
1506085307091,520
1506085307099,513
1506085307108,505
1506085307116,494
1506085307124,487
1506085307133,478
1506085307137,471
1506085307145,465
1506085307153,460
1506085307161,458
1506085307170,455
1506085307178,456
1506085307187,457
1506085307195,458
1506085307203,463
1506085307211,465
1506085307219,469
1506085307227,474
1506085307236,476
1506085307244,480
1506085307252,480
1506085307260,482
1506085307268,483
1506085307276,480
1506085307284,480
1506085307292,476
1506085307297,474
1506085307305,473
1506085307313,469
1506085307321,469
1506085307329,466
1506085307337,465
1506085307346,464
1506085307354,462
1506085307362,463
1506085307371,464
1506085307378,467
1506085307387,467
1506085307395,464
1506085307403,465
1506085307411,464
1506085307419,464
1506085307427,465
1506085307436,462
1506085307443,462
1506085307451,461
1506085307457,460
1506085307465,461
1506085307473,460
1506085307481,462
1506085307489,464
1506085307497,472
1506085307505,485
1506085307513,500
1506085307522,523
1506085307530,549
1506085307538,577
1506085307548,608
1506085307555,636
1506085307562,664
1506085307571,686
1506085307579,702
1506085307587,712
1506085307596,712
1506085307603,711
1506085307611,702
1506085307616,689
1506085307624,673
1506085307632,654
1506085307640,637
1506085307648,617
1506085307656,600
1506085307665,585
1506085307673,570
1506085307681,559
1506085307689,546
1506085307697,535
1506085307706,525
1506085307715,511
1506085307723,501
1506085307730,489
1506085307738,477
1506085307747,467
1506085307755,456
1506085307763,450
1506085307771,445
1506085307775,443
1506085307783,444
1506085307791,444
1506085307800,449
1506085307809,453
1506085307817,458
1506085307825,465
1506085307833,470
1506085307841,476
1506085307849,479
1506085307857,482
1506085307866,486
1506085307874,486
1506085307882,487
1506085307890,484
1506085307899,483
1506085307906,482
1506085307915,477
1506085307923,477
1506085307931,475
1506085307935,471
1506085307943,470
1506085307951,466
1506085307960,466
1506085307968,463
1506085307976,462
1506085307984,462
1506085307992,458
1506085308000,458
1506085308009,457
1506085308017,456
1506085308025,457
1506085308033,454
1506085308042,455
1506085308049,455
1506085308058,453
1506085308066,454
1506085308076,452
1506085308082,457
1506085308092,462
1506085308095,471
1506085308104,488
1506085308112,506
1506085308120,536
1506085308128,571
1506085308136,605
1506085308145,642
1506085308153,676
1506085308161,710
1506085308169,737
1506085308177,760
1506085308185,776
1506085308193,782
1506085308202,783
1506085308210,776
1506085308218,761
1506085308226,745
1506085308235,723
1506085308243,701
1506085308251,678
1506085308259,655
1506085308263,634
1506085308271,613
1506085308279,596
1506085308287,578
1506085308296,559
1506085308304,543
1506085308312,522
1506085308320,506
1506085308328,489
1506085308336,473
1506085308345,461
1506085308353,448
1506085308361,442
1506085308369,436
1506085308377,433
1506085308386,435
1506085308394,435
1506085308402,440
1506085308411,446
1506085308419,450
1506085308423,459
1506085308431,463
1506085308439,469
1506085308447,474
1506085308456,476
1506085308464,480
1506085308472,479
1506085308480,480
1506085308488,479
1506085308496,476
1506085308505,475
1506085308513,469
1506085308521,467
1506085308529,463
1506085308537,459
1506085308546,457
1506085308554,452
1506085308562,450
1506085308570,448
1506085308578,446
1506085308582,447
1506085308590,445
1506085308599,446
1506085308607,446
1506085308615,445
1506085308623,448
1506085308631,447
1506085308639,451
1506085308648,453
1506085308656,455
1506085308664,462
1506085308672,469
1506085308681,481
1506085308689,500
1506085308697,523
1506085308706,555
1506085308714,586
1506085308722,624
1506085308730,660
1506085308738,692
1506085308742,724
1506085308750,744
1506085308758,759
1506085308767,766
1506085308775,763
1506085308783,755
1506085308791,739
1506085308799,721
1506085308807,699
1506085308816,673
1506085308824,649
1506085308832,623
1506085308840,600
1506085308848,579
1506085308856,557
1506085308865,539
1506085308874,520
1506085308882,503
1506085308890,486
1506085308898,469
1506085308902,455
1506085308910,440
1506085308919,430
1506085308927,423
1506085308935,414
1506085308943,412
1506085308951,409
1506085308960,411
1506085308968,414
1506085308976,418
1506085308984,425
1506085308992,430
1506085309001,438
1506085309009,445
1506085309017,448
1506085309025,454
1506085309033,456
1506085309041,457
1506085309049,459
1506085309057,457
1506085309061,456
1506085309070,452
1506085309078,450
1506085309086,447
1506085309094,443
1506085309102,442
1506085309111,438
1506085309119,437
1506085309127,437
1506085309135,435
1506085309143,436
1506085309151,435
1506085309160,435
1506085309168,437
1506085309176,437
1506085309184,439
1506085309192,438
1506085309201,440
1506085309209,442
1506085309217,441
1506085309221,445
1506085309229,446
1506085309237,450
1506085309246,457
1506085309254,466
1506085309262,483
1506085309270,505
1506085309279,534
1506085309287,569
1506085309295,605
1506085309303,646
1506085309311,682
1506085309319,715
1506085309328,742
1506085309336,759
1506085309344,771
1506085309352,772
1506085309360,764
1506085309368,751
1506085309377,729
1506085309381,707
1506085309389,679
1506085309397,651
1506085309405,625
1506085309413,597
1506085309422,575
1506085309430,552
1506085309438,531
1506085309446,514
1506085309455,496
1506085309463,482
1506085309471,467
1506085309479,455
1506085309487,448
1506085309495,439
1506085309504,436
1506085309512,432
1506085309520,432
1506085309528,435
1506085309536,437
1506085309540,443
1506085309549,448
1506085309557,455
1506085309565,462
1506085309574,466
1506085309582,472
1506085309590,475
1506085309598,477
1506085309606,479
1506085309615,477
1506085309623,478
1506085309631,475
1506085309639,471
1506085309647,468
1506085309655,463
1506085309663,460
1506085309672,455
1506085309680,451
1506085309689,449
1506085309697,446
1506085309702,445
1506085309710,444
1506085309717,444
1506085309725,445
1506085309734,444
1506085309742,446
1506085309750,447
1506085309758,446
1506085309766,449
1506085309774,447
1506085309782,449
1506085309791,449
1506085309799,450
1506085309807,454
1506085309816,458
1506085309824,470
1506085309832,482
1506085309840,502
1506085309848,530
1506085309856,561
1506085309861,598
1506085309869,635
1506085309878,673
1506085309885,708
1506085309893,735
1506085309902,759
1506085309910,772
1506085309919,777
1506085309927,774
1506085309935,759
1506085309943,742
1506085309950,717
1506085309959,689
1506085309967,662
1506085309975,631
1506085309983,604
1506085309991,578
1506085310000,554
1506085310008,533
1506085310016,510
1506085310024,493
1506085310028,475
1506085310037,458
1506085310045,446
1506085310053,433
1506085310061,427
1506085310069,421
1506085310078,417
1506085310086,419
1506085310093,420
1506085310102,425
1506085310110,431
1506085310118,437
1506085310126,447
1506085310135,453
1506085310142,462
1506085310151,467
1506085310160,471
1506085310168,475
1506085310175,474
1506085310183,475
1506085310188,473
1506085310196,470
1506085310204,467
1506085310212,461
1506085310221,457
1506085310229,452
1506085310237,446
1506085310245,444
1506085310253,438
1506085310261,436
1506085310269,434
1506085310278,431
1506085310287,431
1506085310295,430
1506085310303,431
1506085310311,431
1506085310319,431
1506085310327,434
1506085310335,433
1506085310343,436
1506085310348,438
1506085310356,438
1506085310364,442
1506085310372,447
1506085310380,457
1506085310388,471
1506085310396,490
1506085310405,517
1506085310413,549
1506085310423,588
1506085310430,629
1506085310439,669
1506085310447,709
1506085310455,740
1506085310463,765
1506085310471,780
1506085310479,784
1506085310487,781
1506085310495,766
1506085310503,747
1506085310507,720
1506085310516,690
1506085310524,660
1506085310532,627
1506085310540,597
1506085310548,568
1506085310556,540
1506085310565,518
1506085310573,496
1506085310581,478
1506085310589,462
1506085310597,447
1506085310606,437
1506085310614,427
1506085310622,423
1506085310630,420
1506085310638,417
1506085310647,420
1506085310655,421
1506085310662,426
1506085310667,432
1506085310675,437
1506085310683,444
1506085310691,449
1506085310700,455
1506085310708,459
1506085310716,461
1506085310724,464
1506085310732,463
1506085310741,463
1506085310749,463
1506085310757,459
1506085310765,457
1506085310773,452
1506085310782,449
1506085310790,446
1506085310798,441
1506085310807,440
1506085310815,435
1506085310823,434
1506085310826,433
1506085310835,432
1506085310843,432
1506085310851,432
1506085310859,434
1506085310868,436
1506085310876,436
1506085310884,440
1506085310892,441
1506085310900,444
1506085310908,446
1506085310917,446
1506085310925,450
1506085310933,453
1506085310941,460
1506085310949,472
1506085310958,488
1506085310967,514
1506085310975,543
1506085310982,580
1506085310986,621
1506085310995,661
1506085311004,702
1506085311012,735
1506085311020,761
1506085311028,781
1506085311036,788
1506085311045,787
1506085311052,775
1506085311061,757
1506085311069,730
1506085311077,699
1506085311085,667
1506085311093,631
1506085311101,597
1506085311110,567
1506085311118,537
1506085311126,512
1506085311134,489
1506085311142,469
1506085311146,453
1506085311155,439
1506085311163,431
1506085311171,422
1506085311179,417
1506085311187,415
1506085311196,414
1506085311204,418
1506085311212,421
1506085311220,427
1506085311228,435
1506085311236,441
1506085311244,450
1506085311253,457
1506085311261,464
1506085311270,470
1506085311277,472
1506085311285,475
1506085311294,474
1506085311302,473
1506085311306,472
1506085311314,467
1506085311322,464
1506085311331,458
1506085311338,453
1506085311347,449
1506085311355,443
1506085311364,440
1506085311372,436
1506085311380,434
1506085311388,434
1506085311396,432
1506085311405,434
1506085311413,434
1506085311421,435
1506085311429,438
1506085311437,438
1506085311446,442
1506085311454,443
1506085311462,445
1506085311466,447
1506085311475,446
1506085311482,449
1506085311491,448
1506085311499,447
1506085311507,448
1506085311515,446
1506085311523,446
1506085311531,446
1506085311540,447
1506085311548,452
1506085311556,459
1506085311564,476
1506085311572,496
1506085311580,524
1506085311588,560
1506085311597,598
1506085311605,641
1506085311613,681
1506085311621,715
1506085311629,745
1506085311634,764
1506085311642,775
1506085311650,774
1506085311658,765
1506085311666,749
1506085311674,723
1506085311683,696
1506085311691,662
1506085311700,629
1506085311708,597
1506085311716,564
1506085311724,537
1506085311732,510
1506085311740,487
1506085311749,468
1506085311757,450
1506085311765,438
1506085311773,426
1506085311781,419
1506085311789,415
1506085311793,410
1506085311802,413
1506085311810,416
1506085311818,420
1506085311826,428
1506085311835,434
1506085311842,443
1506085311850,451
1506085311859,460
1506085311867,469
1506085311875,474
1506085311883,480
1506085311891,483
1506085311900,485
1506085311909,486
1506085311917,483
1506085311924,482
1506085311932,479
1506085311940,473
1506085311949,470
1506085311954,463
1506085311962,459
1506085311970,453
1506085311978,448
1506085311986,446
1506085311995,441
1506085312003,440
1506085312011,439
1506085312019,438
1506085312027,439
1506085312036,439
1506085312044,443
1506085312052,445
1506085312060,447
1506085312068,451
1506085312077,452
1506085312085,455
1506085312093,456
1506085312101,457
1506085312109,460
1506085312113,461
1506085312121,461
1506085312129,462
1506085312138,461
1506085312146,462
1506085312154,459
1506085312162,459
1506085312170,456
1506085312179,455
1506085312187,455
1506085312195,451
1506085312203,452
1506085312211,454
1506085312220,458
1506085312227,468
1506085312236,482
1506085312244,504
1506085312252,533
1506085312260,567
1506085312268,608
1506085312273,647
1506085312281,689
1506085312289,724
1506085312297,752
1506085312305,774
1506085312313,783
1506085312321,783
1506085312330,775
1506085312339,757
1506085312347,734
1506085312355,703
1506085312363,672
1506085312372,638
1506085312380,604
1506085312388,574
1506085312396,544
1506085312404,519
1506085312412,496
1506085312420,475
1506085312428,459
1506085312432,444
1506085312441,434
1506085312449,428
1506085312457,423
1506085312465,424
1506085312473,423
1506085312481,427
1506085312489,433
1506085312498,438
1506085312506,448
1506085312514,455
1506085312522,464
1506085312530,473
1506085312538,478
1506085312547,486
1506085312555,489
1506085312563,493
1506085312571,493
1506085312580,491
1506085312588,490
1506085312592,484
1506085312601,480
1506085312609,474
1506085312618,467
1506085312625,463
1506085312633,455
1506085312641,450
1506085312650,446
1506085312658,441
1506085312666,439
1506085312674,436
1506085312682,435
1506085312690,435
1506085312699,434
1506085312706,438
1506085312715,439
1506085312724,442
1506085312732,446
1506085312740,447
1506085312748,452
1506085312752,454
1506085312760,458
1506085312768,461
1506085312777,462
1506085312786,465
1506085312793,465
1506085312801,465
1506085312809,467
1506085312817,465
1506085312826,465
1506085312834,462
1506085312842,460
1506085312850,459
1506085312858,456
1506085312866,455
1506085312875,453
1506085312884,456
1506085312892,462
1506085312900,471
1506085312908,488
1506085312912,510
1506085312920,539
1506085312928,576
1506085312936,611
1506085312944,650
1506085312954,684
1506085312962,715
1506085312969,738
1506085312978,753
1506085312986,760
1506085312994,757
1506085313002,747
1506085313010,729
1506085313018,704
1506085313026,677
1506085313035,645
1506085313043,614
1506085313051,584
1506085313059,554
1506085313067,531
1506085313071,505
1506085313080,485
1506085313088,469
1506085313096,452
1506085313104,444
1506085313112,435
1506085313121,429
1506085313130,427
1506085313137,424
1506085313145,426
1506085313153,428
1506085313161,434
1506085313169,441
1506085313178,447
1506085313187,457
1506085313195,463
1506085313203,470
1506085313211,479
1506085313219,482
1506085313227,487
1506085313231,490
1506085313240,491
1506085313248,491
1506085313256,488
1506085313264,487
1506085313272,482
1506085313281,478
1506085313289,474
1506085313298,466
1506085313305,463
1506085313313,457
1506085313322,452
1506085313329,448
1506085313338,442
1506085313346,439
1506085313354,434
1506085313362,431
1506085313370,431
1506085313378,428
1506085313386,429
1506085313390,430
1506085313399,431
1506085313407,434
1506085313416,435
1506085313424,440
1506085313432,442
1506085313440,444
1506085313449,447
1506085313457,447
1506085313465,448
1506085313473,447
1506085313482,446
1506085313489,446
1506085313499,444
1506085313506,444
1506085313514,441
1506085313522,440
1506085313530,440
1506085313538,438
1506085313547,438
1506085313551,438
1506085313559,440
1506085313567,448
1506085313575,458
1506085313584,475
1506085313592,497
1506085313600,526
1506085313608,561
1506085313616,597
1506085313624,637
1506085313632,673
1506085313641,705
1506085313649,732
1506085313657,749
1506085313666,758
1506085313673,757
1506085313682,748
1506085313690,733
1506085313698,709
1506085313706,684
1506085313715,654
1506085313719,623
1506085313727,594
1506085313735,562
1506085313743,537
1506085313751,513
1506085313760,491
1506085313768,475
1506085313776,460
1506085313784,449
1506085313792,440
1506085313800,434
1506085313808,433
1506085313817,431
1506085313825,433
1506085313833,436
1506085313841,441
1506085313850,449
1506085313858,456
1506085313865,465
1506085313874,473
1506085313878,480
1506085313887,488
1506085313895,491
1506085313903,497
1506085313911,500
1506085313919,502
1506085313928,506
1506085313936,505
1506085313944,504
1506085313952,502
1506085313960,498
1506085313969,494
1506085313977,488
1506085313985,485
1506085313993,480
1506085314001,476
1506085314009,474
1506085314017,469
1506085314027,467
1506085314034,464
1506085314038,460
1506085314046,459
1506085314055,456
1506085314063,453
1506085314071,453
1506085314079,454
1506085314087,451
1506085314095,444
1506085314104,441
1506085314112,438
1506085314120,438
1506085314128,441
1506085314136,443
1506085314144,449
1506085314152,454
1506085314161,454
1506085314169,457
1506085314177,458
1506085314185,466
1506085314193,471
1506085314197,475
1506085314206,478
1506085314214,476
1506085314222,478
1506085314230,477
1506085314238,470
1506085314246,470
1506085314255,471
1506085314263,479
1506085314271,492
1506085314279,509
1506085314287,536
1506085314296,568
1506085314304,604
1506085314312,640
1506085314320,673
1506085314328,707
1506085314337,729
1506085314345,747
1506085314352,755
1506085314357,753
1506085314366,744
1506085314374,725
1506085314382,702
1506085314391,674
1506085314399,642
1506085314407,611
1506085314415,578
1506085314423,550
1506085314431,523
1506085314440,497
1506085314448,478
1506085314456,459
1506085314464,447
1506085314473,436
1506085314481,427
1506085314489,423
1506085314497,420
1506085314505,421
1506085314513,424
1506085314517,428
1506085314526,435
1506085314534,440
1506085314542,448
1506085314550,458
1506085314558,465
1506085314567,476
1506085314575,485
1506085314583,492
1506085314591,499
1506085314599,503
1506085314607,509
1506085314616,513
1506085314624,517
1506085314632,520
1506085314640,521
1506085314648,523
1506085314657,519
1506085314664,517
1506085314672,513
1506085314677,506
1506085314686,502
1506085314694,496
1506085314702,491
1506085314710,487
1506085314718,482
1506085314726,486
1506085314734,484
1506085314742,484
1506085314751,482
1506085314759,480
1506085314767,481
1506085314775,477
1506085314783,474
1506085314791,474
1506085314800,470
1506085314808,468
1506085314816,467
1506085314824,465
1506085314832,464
1506085314836,462
1506085314844,461
1506085314852,459
1506085314861,458
1506085314869,457
1506085314877,455
1506085314886,457
1506085314895,456
1506085314903,455
1506085314911,457
1506085314919,459
1506085314927,468
1506085314935,479
1506085314943,496
1506085314952,517
1506085314960,541
1506085314968,572
1506085314976,602
1506085314984,632
1506085314992,662
1506085314997,684
1506085315005,702
1506085315013,712
1506085315021,714
1506085315029,710
1506085315038,697
1506085315046,681
1506085315054,657
1506085315062,632
1506085315070,607
1506085315079,578
1506085315087,554
1506085315095,529
1506085315103,507
1506085315111,489
1506085315119,471
1506085315128,459
1506085315136,447
1506085315144,440
1506085315152,436
1506085315156,432
1506085315165,433
1506085315173,434
1506085315181,437
1506085315189,443
1506085315197,448
1506085315205,456
1506085315213,462
1506085315222,470
1506085315230,477
1506085315238,482
1506085315246,487
1506085315255,489
1506085315262,490
1506085315271,492
1506085315279,490
1506085315287,491
1506085315295,488
1506085315303,485
1506085315312,481
1506085315316,474
1506085315325,471
1506085315333,465
1506085315341,461
1506085315349,457
1506085315357,452
1506085315365,450
1506085315373,448
1506085315381,445
1506085315390,446
1506085315398,445
1506085315406,447
1506085315415,448
1506085315422,450
1506085315430,453
1506085315438,455
1506085315447,463
1506085315455,464
1506085315463,465
1506085315471,468
1506085315479,467
1506085315484,471
1506085315492,471
1506085315501,471
1506085315509,472
1506085315516,472
1506085315524,473
1506085315532,471
1506085315541,471
1506085315549,475
1506085315557,479
1506085315565,490
1506085315574,503
1506085315582,519
1506085315590,545
1506085315598,567
1506085315606,593
1506085315614,618
1506085315622,640
1506085315632,658
1506085315640,669
1506085315644,676
1506085315652,676
1506085315661,670
1506085315668,659
1506085315677,640
1506085315685,619
1506085315693,597
1506085315701,572
1506085315709,550
1506085315717,528
1506085315725,508
1506085315733,489
1506085315742,474
1506085315750,462
1506085315758,449
1506085315766,442
1506085315775,436
1506085315782,433
1506085315790,432
1506085315798,431
1506085315803,433
1506085315811,438
1506085315819,443
1506085315828,451
1506085315836,455
1506085315844,464
1506085315852,468
1506085315860,471
1506085315870,477
1506085315878,476
1506085315886,477
1506085315894,478
1506085315902,476
1506085315910,476
1506085315918,474
1506085315927,474
1506085315935,471
1506085315943,469
1506085315951,467
1506085315959,463
1506085315963,460
1506085315971,459
1506085315980,454
1506085315988,454
1506085315996,450
1506085316004,449
1506085316012,448
1506085316021,446
1506085316029,446
1506085316038,445
1506085316046,447
1506085316054,449
1506085316061,450
1506085316070,455
1506085316078,457
1506085316086,461
1506085316095,465
1506085316102,469
1506085316110,474
1506085316118,476
1506085316123,479
1506085316131,480
1506085316139,480
1506085316147,482
1506085316156,480
1506085316164,482
1506085316172,483
1506085316181,486
1506085316188,496
1506085316198,506
1506085316204,524
1506085316212,545
1506085316221,569
1506085316229,595
1506085316237,621
1506085316246,642
1506085316254,658
1506085316262,666
1506085316270,670
1506085316278,665
1506085316282,657
1506085316291,643
1506085316299,624
1506085316307,605
1506085316315,581
1506085316323,559
1506085316332,537
1506085316340,517
1506085316348,498
1506085316356,480
1506085316364,467
1506085316372,460
1506085316381,450
1506085316389,447
1506085316398,444
1506085316406,440
1506085316414,437
1506085316422,437
1506085316430,446
1506085316438,450
1506085316442,456
1506085316450,464
1506085316458,473
1506085316466,483
1506085316475,488
1506085316483,492
1506085316491,495
1506085316499,494
1506085316507,491
1506085316516,485
1506085316525,480
1506085316533,477
1506085316541,472
1506085316549,469
1506085316558,464
1506085316566,461
1506085316574,460
1506085316583,456
1506085316590,456
1506085316598,453
1506085316602,451
1506085316610,452
1506085316619,451
1506085316627,454
1506085316635,454
1506085316643,456
1506085316651,458
1506085316659,457
1506085316668,461
1506085316676,462
1506085316684,463
1506085316692,464
1506085316700,464
1506085316709,464
1506085316717,464
1506085316725,464
1506085316733,463
1506085316742,460
1506085316750,461
1506085316758,458
1506085316762,456
1506085316770,454
1506085316778,449
1506085316786,448
1506085316795,445
1506085316803,446
1506085316811,450
1506085316819,453
1506085316827,464
1506085316836,475
1506085316844,493
1506085316852,515
1506085316860,535
1506085316868,560
1506085316877,584
1506085316885,606
1506085316893,625
1506085316901,637
1506085316910,646
1506085316917,647
1506085316921,644
1506085316929,635
1506085316938,623
1506085316946,609
1506085316955,588
1506085316962,566
1506085316971,542
1506085316979,517
1506085316987,496
1506085316995,476
1506085317003,459
1506085317011,448
1506085317020,436
1506085317028,431
1506085317036,427
1506085317044,426
1506085317052,428
1506085317060,428
1506085317069,434
1506085317077,438
1506085317081,444
1506085317089,454
1506085317097,460
1506085317106,468
1506085317114,475
1506085317122,479
1506085317130,485
1506085317138,487
1506085317146,490
1506085317155,490
1506085317163,490
1506085317172,490
1506085317180,486
1506085317188,485
1506085317196,482
1506085317204,478
1506085317212,474
1506085317221,469
1506085317229,465
1506085317237,460
1506085317241,457
1506085317249,455
1506085317258,451
1506085317266,451
1506085317274,450
1506085317282,449
1506085317290,452
1506085317298,451
1506085317306,452
1506085317315,454
1506085317323,455
1506085317331,460
1506085317339,460
1506085317347,464
1506085317356,465
1506085317364,466
1506085317372,468
1506085317380,467
1506085317388,468
1506085317396,466
1506085317400,463
1506085317408,463
1506085317417,460
1506085317425,460
1506085317433,459
1506085317441,460
1506085317449,463
1506085317457,466
1506085317466,476
1506085317475,487
1506085317483,499
1506085317491,518
1506085317499,535
1506085317507,554
1506085317516,572
1506085317524,586
1506085317532,599
1506085317540,607
1506085317548,612
1506085317556,609
1506085317564,602
1506085317568,593
1506085317576,577
1506085317585,562
1506085317593,545
1506085317601,528
1506085317609,512
1506085317617,497
1506085317625,487
1506085317634,478
1506085317642,472
1506085317650,470
1506085317658,468
1506085317666,470
1506085317676,470
1506085317684,469
1506085317692,470
1506085317700,468
1506085317708,465
1506085317716,463
1506085317724,462
1506085317728,463
1506085317737,463
1506085317745,465
1506085317753,467
1506085317761,468
1506085317769,473
1506085317778,473
1506085317786,475
1506085317794,477
1506085317802,478
1506085317810,480
1506085317818,480
1506085317827,482
1506085317835,482
1506085317843,482
1506085317851,483
1506085317859,482
1506085317867,482
1506085317876,482
1506085317883,479
1506085317888,479
1506085317896,476
1506085317904,473
1506085317912,470
1506085317920,466
1506085317929,465
1506085317937,461
1506085317946,459
1506085317954,457
1506085317962,455
1506085317970,455
1506085317978,453
1506085317987,453
1506085317995,454
1506085318003,453
1506085318011,454
1506085318019,453
1506085318027,455
1506085318036,456
1506085318043,455
1506085318048,458
1506085318056,458
1506085318064,460
1506085318072,462
1506085318081,462
1506085318089,466
1506085318098,467
1506085318105,472
1506085318113,479
1506085318121,488
1506085318130,503
1506085318138,518
1506085318146,537
1506085318154,558
1506085318162,578
1506085318170,599
1506085318178,614
1506085318187,628
1506085318195,639
1506085318203,642
1506085318207,643
1506085318215,636
1506085318223,629
1506085318231,618
1506085318240,603
1506085318248,589
1506085318256,572
1506085318265,556
1506085318273,541
1506085318281,526
1506085318289,515
1506085318298,504
1506085318306,496
1506085318315,490
1506085318322,482
1506085318330,479
1506085318339,474
1506085318347,473
1506085318355,473
1506085318363,473
1506085318367,475
1506085318376,476
1506085318384,480
1506085318392,483
1506085318400,486
1506085318408,492
1506085318416,495
1506085318424,498
1506085318432,501
1506085318440,501
1506085318449,501
1506085318458,499
1506085318466,496
1506085318474,494
1506085318482,490
1506085318490,489
1506085318498,486
1506085318506,484
1506085318515,484
1506085318523,480
1506085318528,479
1506085318535,474
1506085318544,471
1506085318552,470
1506085318559,466
1506085318568,467
1506085318576,465
1506085318584,466
1506085318592,466
1506085318600,466
1506085318608,469
1506085318616,471
1506085318625,472
1506085318633,473
1506085318641,472
1506085318650,475
1506085318658,475
1506085318667,474
1506085318675,476
1506085318683,475
1506085318687,477
1506085318695,476
1506085318703,477
1506085318712,479
1506085318720,477
1506085318728,480
1506085318736,480
1506085318745,479
1506085318753,479
1506085318761,476
1506085318769,475
1506085318777,473
1506085318785,474
1506085318793,476
1506085318801,478
1506085318809,486
1506085318818,496
1506085318826,510
1506085318834,529
1506085318842,547
1506085318846,569
1506085318854,589
1506085318862,608
1506085318871,626
1506085318879,638
1506085318888,649
1506085318895,651
1506085318905,651
1506085318912,647
1506085318920,637
1506085318928,625
1506085318937,609
1506085318944,593
1506085318952,578
1506085318960,561
1506085318969,547
1506085318977,533
1506085318985,522
1506085318993,514
1506085319001,504
1506085319005,499
1506085319014,494
1506085319022,491
1506085319030,492
1506085319038,488
1506085319046,489
1506085319055,489
1506085319063,488
1506085319071,490
1506085319079,490
1506085319087,493
1506085319095,495
1506085319104,497
1506085319112,500
1506085319120,499
1506085319128,502
1506085319136,501
1506085319144,501
1506085319153,501
1506085319161,498
1506085319165,496
1506085319173,493
1506085319182,490
1506085319190,488
1506085319198,483
1506085319207,481
1506085319215,479
1506085319223,476
1506085319232,477
1506085319240,473
1506085319248,472
1506085319257,472
1506085319264,470
1506085319273,472
1506085319281,470
1506085319289,473
1506085319297,473
1506085319305,473
1506085319314,476
1506085319322,474
1506085319329,478
1506085319334,478
1506085319342,479
1506085319350,481
1506085319359,481
1506085319366,483
1506085319375,482
1506085319383,481
1506085319391,483
1506085319399,481
1506085319407,482
1506085319416,481
1506085319424,480
1506085319432,481
1506085319440,480
1506085319448,480
1506085319456,480
1506085319465,478
1506085319473,478
1506085319481,475
1506085319489,476
1506085319493,476
1506085319501,478
1506085319510,484
1506085319518,491
1506085319526,504
1506085319534,518
1506085319542,535
1506085319551,556
1506085319559,575
1506085319567,596
1506085319575,614
1506085319583,629
1506085319591,641
1506085319600,646
1506085319608,649
1506085319616,645
1506085319624,636
1506085319632,627
1506085319641,612
1506085319649,599
1506085319653,584
1506085319661,568
1506085319669,554
1506085319678,540
1506085319686,528
1506085319695,517
1506085319703,507
1506085319711,503
1506085319719,494
1506085319727,491
1506085319735,488
1506085319743,485
1506085319751,487
1506085319760,486
1506085319768,487
1506085319776,490
1506085319784,490
1506085319792,493
1506085319800,494
1506085319809,498
1506085319813,500
1506085319821,499
1506085319829,502
1506085319837,500
1506085319846,500
1506085319855,500
1506085319862,498
1506085319871,496
1506085319879,492
1506085319887,489
1506085319896,486
1506085319903,481
1506085319911,480
1506085319919,475
1506085319927,473
1506085319936,472
1506085319944,469
1506085319953,470
1506085319961,468
1506085319969,468
1506085319973,469
1506085319981,468
1506085319990,472
1506085319998,471
1506085320006,473
1506085320014,474
1506085320022,475
1506085320030,478
1506085320038,477
1506085320047,480
1506085320055,481
1506085320063,479
1506085320071,482
1506085320079,481
1506085320087,482
1506085320096,482
1506085320104,482
1506085320112,483
1506085320120,482
1506085320128,483
1506085320133,482
1506085320141,480
1506085320149,482
1506085320157,480
1506085320165,480
1506085320173,483
1506085320182,485
1506085320190,492
1506085320198,501
1506085320206,514
1506085320215,530
1506085320223,547
1506085320231,568
1506085320239,586
1506085320247,605
1506085320256,623
1506085320263,632
1506085320272,641
1506085320280,642
1506085320288,641
1506085320292,636
1506085320300,627
1506085320309,616
1506085320317,601
1506085320325,588
1506085320333,574
1506085320341,559
1506085320349,549
1506085320358,537
1506085320366,528
1506085320374,520
1506085320382,511
1506085320390,506
1506085320398,500
1506085320407,495
1506085320415,492
1506085320423,488
1506085320432,488
1506085320440,486
1506085320448,488
1506085320452,491
1506085320460,491
1506085320468,496
1506085320477,498
1506085320485,500
1506085320493,503
1506085320501,503
1506085320509,505
1506085320517,504
1506085320526,504
1506085320534,503
1506085320542,500
1506085320550,499
1506085320558,496
1506085320567,492
1506085320575,490
1506085320583,484
1506085320591,482
1506085320599,479
1506085320607,476
1506085320612,474
1506085320620,471
1506085320628,472
1506085320636,469
1506085320644,468
1506085320653,470
1506085320661,469
1506085320669,472
1506085320678,472
1506085320685,474
1506085320693,476
1506085320702,475
1506085320710,477
1506085320718,476
1506085320726,477
1506085320735,479
1506085320743,478
1506085320751,480
1506085320759,481
1506085320767,482
1506085320771,482
1506085320780,481
1506085320788,482
1506085320796,481
1506085320804,481
1506085320812,482
1506085320821,481
1506085320829,481
1506085320837,480
1506085320845,479
1506085320853,480
1506085320861,478
1506085320869,480
1506085320878,481
1506085320886,484
1506085320894,492
1506085320902,501
1506085320910,516
1506085320919,532
1506085320927,551
1506085320931,573
1506085320939,590
1506085320947,610
1506085320956,624
1506085320964,635
1506085320972,644
1506085320980,645
1506085320988,644
1506085320996,637
1506085321004,628
1506085321013,617
1506085321021,601
1506085321029,590
1506085321037,575
1506085321045,561
1506085321054,552
1506085321062,539
1506085321070,532
1506085321078,526
1506085321086,520
1506085321094,515
1506085321099,508
1506085321106,505
1506085321115,501
1506085321123,498
1506085321131,496
1506085321139,491
1506085321147,493
1506085321156,492
1506085321164,490
1506085321172,492
1506085321180,491
1506085321188,492
1506085321197,493
1506085321205,492
1506085321213,494
1506085321221,493
1506085321229,494
1506085321237,494
1506085321245,491
1506085321254,492
1506085321260,488
1506085321267,488
1506085321275,487
1506085321283,483
1506085321292,482
1506085321300,478
1506085321308,477
1506085321316,474
1506085321324,471
1506085321332,470
1506085321340,466
1506085321349,466
1506085321357,465
1506085321365,464
1506085321373,465
1506085321381,465
1506085321390,466
1506085321398,468
1506085321406,468
1506085321414,470
1506085321419,470
1506085321427,474
1506085321435,475
1506085321444,475
1506085321451,478
1506085321460,477
1506085321468,480
1506085321476,480
1506085321484,480
1506085321492,482
1506085321501,483
1506085321508,483
1506085321516,483
1506085321524,483
1506085321533,483
1506085321541,480
1506085321550,480
1506085321558,479
1506085321566,476
1506085321574,477
1506085321579,474
1506085321587,474
1506085321595,474
1506085321603,473
1506085321611,477
1506085321620,482
1506085321628,491
1506085321636,504
1506085321644,519
1506085321651,539
1506085321660,558
1506085321668,580
1506085321676,600
1506085321685,616
1506085321693,632
1506085321701,641
1506085321709,648
1506085321717,650
1506085321726,647
1506085321734,641
1506085321738,629
1506085321746,619
1506085321755,607
1506085321763,591
1506085321771,578
1506085321779,563
1506085321788,552
1506085321795,542
1506085321803,532
1506085321812,526
1506085321820,518
1506085321828,514
1506085321836,510
1506085321844,505
1506085321852,503
1506085321861,499
1506085321870,499
1506085321878,498
1506085321886,496
1506085321894,498
1506085321898,498
1506085321906,500
1506085321914,502
1506085321923,502
1506085321932,504
1506085321939,504
1506085321947,504
1506085321955,505
1506085321963,503
1506085321972,504
1506085321980,502
1506085321988,500
1506085321996,499
1506085322005,495
1506085322013,494
1506085322021,490
1506085322029,487
1506085322037,486
1506085322045,481
1506085322053,482
1506085322057,478
1506085322066,477
1506085322074,476
1506085322082,474
1506085322090,474
1506085322098,472
1506085322107,472
1506085322115,472
1506085322123,469
1506085322131,471
1506085322139,470
1506085322147,471
1506085322155,472
1506085322164,472
1506085322172,475
1506085322180,474
1506085322188,477
1506085322196,479
1506085322205,478
1506085322212,481
1506085322217,481
1506085322225,481
1506085322233,482
1506085322241,481
1506085322249,481
1506085322258,480
1506085322266,481
1506085322275,481
1506085322283,479
1506085322291,481
1506085322299,479
1506085322307,478
1506085322316,479
1506085322323,477
1506085322331,479
1506085322340,480
1506085322349,483
1506085322357,489
1506085322364,496
1506085322372,510
1506085322377,524
1506085322385,542
1506085322393,563
1506085322401,580
1506085322409,602
1506085322418,617
1506085322426,632
1506085322434,642
1506085322442,646
1506085322450,648
1506085322458,643
1506085322466,636
1506085322476,626
1506085322484,611
1506085322492,598
1506085322500,582
1506085322509,567
1506085322517,555
1506085322524,541
1506085322532,532
1506085322536,523
1506085322545,514
1506085322553,509
1506085322561,503
1506085322569,501
1506085322577,497
1506085322586,495
1506085322594,495
1506085322602,492
1506085322610,494
1506085322619,494
1506085322627,495
1506085322635,497
1506085322643,497
1506085322652,500
1506085322660,501
1506085322668,501
1506085322676,503
1506085322685,501
1506085322693,502
1506085322697,501
1506085322705,499
1506085322712,498
1506085322721,493
1506085322729,492
1506085322737,489
1506085322746,484
1506085322754,482
1506085322762,478
1506085322770,476
1506085322778,472
1506085322787,470
1506085322795,469
1506085322803,466
1506085322811,466
1506085322819,464
1506085322828,463
1506085322836,466
1506085322844,464
1506085322852,466
1506085322856,467
1506085322864,469
1506085322872,471
1506085322881,471
1506085322889,474
1506085322897,475
1506085322905,476
1506085322913,479
1506085322921,479
1506085322929,481
1506085322939,484
1506085322946,483
1506085322955,484
1506085322963,482
1506085322971,483
1506085322979,482
1506085322987,482
1506085322996,482
1506085323004,479
1506085323012,480
1506085323020,478
1506085323024,476
1506085323032,477
1506085323041,475
1506085323049,476
1506085323057,477
1506085323065,480
1506085323073,487
1506085323081,496
1506085323090,510
1506085323098,526
1506085323106,545
1506085323115,566
1506085323122,585
1506085323131,604
1506085323139,619
1506085323147,629
1506085323155,637
1506085323163,638
1506085323171,637
1506085323180,630
1506085323184,619
1506085323192,608
1506085323200,592
1506085323208,578
1506085323217,562
1506085323225,546
1506085323233,534
1506085323241,521
1506085323249,511
1506085323258,503
1506085323265,496
1506085323274,492
1506085323282,486
1506085323290,484
1506085323298,483
1506085323306,482
1506085323315,485
1506085323323,485
1506085323331,489
1506085323339,492
1506085323343,496
1506085323351,500
1506085323360,502
1506085323368,507
1506085323376,510
1506085323384,511
1506085323392,513
1506085323400,512
1506085323409,512
1506085323417,512
1506085323425,508
1506085323433,508
1506085323441,503
1506085323450,500
1506085323458,498
1506085323466,493
1506085323474,491
1506085323483,486
1506085323491,484
1506085323499,481
1506085323503,477
1506085323512,477
1506085323520,473
1506085323528,474
1506085323536,474
1506085323544,471
1506085323553,474
1506085323561,473
1506085323569,475
1506085323577,476
1506085323585,477
1506085323593,480
1506085323601,479
1506085323610,480
1506085323618,482
1506085323626,480
1506085323634,483
1506085323642,481
1506085323650,481
1506085323659,482
1506085323663,480
1506085323671,480
1506085323679,477
1506085323687,476
1506085323695,475
1506085323703,473
1506085323712,474
1506085323720,473
1506085323729,476
1506085323737,481
1506085323745,488
1506085323753,502
1506085323762,515
1506085323770,534
1506085323778,553
1506085323786,573
1506085323795,593
1506085323802,609
1506085323810,624
1506085323818,636
1506085323822,639
1506085323831,641
1506085323839,637
1506085323847,629
1506085323856,619
1506085323863,604
1506085323871,591
1506085323880,575
1506085323889,561
1506085323897,548
1506085323905,534
1506085323913,526
1506085323921,516
1506085323929,508
1506085323937,504
1506085323945,497
1506085323954,495
1506085323962,491
1506085323970,489
1506085323978,490
1506085323982,489
1506085323991,492
1506085323999,493
1506085324007,496
1506085324015,500
1506085324023,501
1506085324031,506
1506085324039,508
1506085324048,509
1506085324056,511
1506085324064,511
1506085324072,512
1506085324080,510
1506085324089,509
1506085324097,508
1506085324105,503
1506085324113,503
1506085324121,498
1506085324130,495
1506085324138,492
1506085324142,488
1506085324150,486
1506085324158,481
1506085324166,478
1506085324175,477
1506085324184,474
1506085324192,474
1506085324200,472
1506085324208,472
1506085324217,472
1506085324225,470
1506085324233,472
1506085324241,472
1506085324249,474
1506085324258,477
1506085324266,477
1506085324274,480
1506085324282,481
1506085324290,482
1506085324298,483
1506085324302,482
1506085324310,484
1506085324318,482
1506085324327,482
1506085324334,484
1506085324343,481
1506085324351,482
1506085324360,481
1506085324368,480
1506085324376,480
1506085324384,478
1506085324392,480
1506085324400,481
1506085324409,486
1506085324417,495
1506085324425,506
1506085324433,523
1506085324441,543
1506085324449,564
1506085324457,589
1506085324461,608
1506085324470,629
1506085324478,646
1506085324486,658
1506085324494,665
1506085324503,665
1506085324512,664
1506085324520,655
1506085324528,643
1506085324536,630
1506085324544,611
1506085324552,597
1506085324560,581
1506085324568,565
1506085324577,552
1506085324585,539
1506085324593,531
1506085324601,523
1506085324609,516
1506085324617,511
1506085324625,504
1506085324630,503
1506085324638,499
1506085324646,497
1506085324654,497
1506085324663,495
1506085324671,496
1506085324679,496
1506085324688,497
1506085324695,498
1506085324703,499
1506085324711,502
1506085324719,504
1506085324728,504
1506085324737,507
1506085324744,505
1506085324752,506
1506085324761,505
1506085324769,503
1506085324777,503
1506085324785,499
1506085324789,497
1506085324797,494
1506085324805,490
1506085324815,488
1506085324823,483
1506085324831,482
1506085324839,478
1506085324847,475
1506085324855,475
1506085324863,471
1506085324871,471
1506085324879,470
1506085324888,469
1506085324896,470
