time,value
1506084047519,497
1506084047527,502
1506084047535,501
1506084047543,502
1506084047551,504
1506084047560,503
1506084047568,505
1506084047576,504
1506084047585,504
1506084047592,504
1506084047600,502
1506084047609,502
1506084047617,500
1506084047625,500
1506084047633,500
1506084047641,498
1506084047646,498
1506084047654,496
1506084047662,494
1506084047670,494
1506084047678,491
1506084047686,492
1506084047694,490
1506084047702,490
1506084047710,490
1506084047719,487
1506084047727,488
1506084047735,486
1506084047744,486
1506084047752,487
1506084047761,484
1506084047769,486
1506084047777,484
1506084047785,485
1506084047793,486
1506084047801,485
1506084047809,488
1506084047814,488
1506084047822,489
1506084047830,490
1506084047838,489
1506084047846,492
1506084047854,491
1506084047862,491
1506084047871,492
1506084047879,491
1506084047887,494
1506084047895,492
1506084047903,493
1506084047912,493
1506084047920,492
1506084047928,493
1506084047936,492
1506084047944,493
1506084047952,496
1506084047961,495
1506084047965,500
1506084047973,502
1506084047982,507
1506084047990,512
1506084047997,518
1506084048006,526
1506084048014,531
1506084048022,538
1506084048030,545
1506084048038,547
1506084048047,555
1506084048055,557
1506084048063,559
1506084048071,561
1506084048079,559
1506084048087,559
1506084048095,555
1506084048104,552
1506084048112,549
1506084048120,541
1506084048128,538
1506084048132,532
1506084048141,525
1506084048149,521
1506084048157,513
1506084048165,510
1506084048173,504
1506084048182,500
1506084048190,497
1506084048198,492
1506084048206,491
1506084048214,487
1506084048222,486
1506084048230,487
1506084048239,483
1506084048247,485
1506084048256,484
1506084048264,486
1506084048272,488
1506084048280,485
1506084048288,490
1506084048292,489
1506084048301,490
1506084048310,493
1506084048317,493
1506084048326,496
1506084048334,497
1506084048341,498
1506084048350,500
1506084048358,499
1506084048366,507
1506084048375,503
1506084048383,502
1506084048391,503
1506084048399,502
1506084048408,504
1506084048416,503
1506084048424,503
1506084048432,503
1506084048440,501
1506084048448,502
1506084048452,501
1506084048460,501
1506084048469,501
1506084048478,498
1506084048485,500
1506084048493,498
1506084048502,498
1506084048509,499
1506084048518,496
1506084048526,497
1506084048534,495
1506084048543,495
1506084048550,495
1506084048558,492
1506084048567,494
1506084048576,493
1506084048584,493
1506084048592,494
1506084048600,491
1506084048608,492
1506084048613,492
1506084048620,491
1506084048629,493
1506084048637,491
1506084048645,494
1506084048653,492
1506084048661,493
1506084048671,495
1506084048678,493
1506084048686,496
1506084048695,496
1506084048703,496
1506084048710,498
1506084048719,497
1506084048727,499
1506084048735,499
1506084048743,499
1506084048751,502
1506084048759,501
1506084048767,506
1506084048772,507
1506084048780,510
1506084048788,517
1506084048796,521
1506084048805,529
1506084048813,534
1506084048821,541
1506084048829,549
1506084048839,554
1506084048847,561
1506084048854,564
1506084048863,568
1506084048871,571
1506084048879,569
1506084048887,570
1506084048895,567
1506084048903,564
1506084048912,562
1506084048920,556
1506084048928,553
1506084048932,545
1506084048940,539
1506084048948,534
1506084048956,526
1506084048965,522
1506084048972,516
1506084048981,511
1506084048989,508
1506084048997,501
1506084049006,500
1506084049013,497
1506084049022,494
1506084049030,493
1506084049038,489
1506084049047,490
1506084049054,488
1506084049063,488
1506084049071,489
1506084049079,486
1506084049087,490
1506084049091,489
1506084049099,489
1506084049107,492
1506084049116,492
1506084049124,495
1506084049132,495
1506084049140,497
1506084049148,498
1506084049157,498
1506084049165,501
1506084049173,501
1506084049181,501
1506084049189,504
1506084049198,502
1506084049206,505
1506084049214,505
1506084049223,503
1506084049231,504
1506084049238,501
1506084049247,501
1506084049251,499
1506084049259,498
1506084049267,498
1506084049275,495
1506084049284,500
1506084049292,499
1506084049300,494
1506084049308,494
1506084049316,491
1506084049324,492
1506084049333,491
1506084049341,490
1506084049349,492
1506084049357,489
1506084049366,491
1506084049374,490
1506084049382,491
1506084049390,493
1506084049399,492
1506084049407,493
1506084049410,493
1506084049418,492
1506084049427,494
1506084049435,493
1506084049443,495
1506084049451,494
1506084049459,495
1506084049468,497
1506084049476,496
1506084049484,498
1506084049492,497
1506084049500,496
1506084049509,499
1506084049517,496
1506084049525,498
1506084049533,497
1506084049542,495
1506084049550,497
1506084049558,494
1506084049566,497
1506084049570,497
1506084049578,497
1506084049586,501
1506084049594,501
1506084049602,508
1506084049611,512
1506084049619,517
1506084049627,525
1506084049635,530
1506084049644,538
1506084049653,544
1506084049661,550
1506084049669,557
1506084049677,560
1506084049685,566
1506084049693,567
1506084049702,568
1506084049710,569
1506084049718,566
1506084049726,564
1506084049730,560
1506084049739,555
1506084049747,551
1506084049755,543
1506084049763,539
1506084049771,532
1506084049779,525
1506084049788,519
1506084049796,511
1506084049804,507
1506084049812,503
1506084049820,498
1506084049829,497
1506084049837,494
1506084049845,493
1506084049853,492
1506084049861,490
1506084049869,492
1506084049877,489
1506084049885,491
1506084049893,491
1506084049898,491
1506084049906,494
1506084049914,494
1506084049922,497
1506084049931,498
1506084049939,498
1506084049947,501
1506084049956,501
1506084049964,504
1506084049972,504
1506084049980,505
1506084049989,508
1506084049997,506
1506084050005,508
1506084050013,508
1506084050021,507
1506084050029,508
1506084050038,506
1506084050046,507
1506084050054,505
1506084050058,504
1506084050067,504
1506084050075,500
1506084050083,501
1506084050091,499
1506084050099,496
1506084050107,497
1506084050115,494
1506084050123,494
1506084050132,493
1506084050140,492
1506084050148,494
1506084050156,491
1506084050164,493
1506084050172,493
1506084050181,492
1506084050189,493
1506084050197,492
1506084050205,493
1506084050213,494
1506084050217,493
1506084050225,495
1506084050234,494
1506084050242,495
1506084050250,496
1506084050258,496
1506084050266,498
1506084050275,497
1506084050283,499
1506084050291,499
1506084050299,499
1506084050307,502
1506084050315,500
1506084050324,501
1506084050332,501
1506084050340,499
1506084050348,501
1506084050357,499
1506084050365,500
1506084050372,500
1506084050377,499
1506084050385,502
1506084050393,501
1506084050401,505
1506084050410,508
1506084050418,511
1506084050427,517
1506084050435,520
1506084050443,528
1506084050451,535
1506084050459,540
1506084050468,548
1506084050476,553
1506084050484,559
1506084050492,563
1506084050500,566
1506084050509,570
1506084050517,569
1506084050525,569
1506084050533,568
1506084050537,564
1506084050546,562
1506084050553,556
1506084050562,552
1506084050570,546
1506084050578,539
1506084050586,535
1506084050594,527
1506084050603,522
1506084050611,517
1506084050619,510
1506084050627,508
1506084050635,503
1506084050644,502
1506084050652,499
1506084050660,495
1506084050668,494
1506084050676,496
1506084050685,498
1506084050692,496
1506084050697,492
1506084050705,495
1506084050713,492
1506084050721,496
1506084050729,496
1506084050738,497
1506084050746,500
1506084050754,496
1506084050762,497
1506084050770,498
1506084050778,498
1506084050787,501
1506084050796,500
1506084050804,503
1506084050812,506
1506084050820,505
1506084050828,508
1506084050836,507
1506084050844,508
1506084050852,508
1506084050857,507
1506084050865,508
1506084050873,505
1506084050881,507
1506084050889,505
1506084050897,502
1506084050906,503
1506084050914,500
1506084050922,500
1506084050930,499
1506084050938,496
1506084050946,498
1506084050954,495
1506084050963,496
1506084050971,496
1506084050980,494
1506084050988,496
1506084050996,493
1506084051004,494
1506084051012,495
1506084051018,493
1506084051025,495
1506084051034,494
1506084051041,496
1506084051050,496
1506084051058,495
1506084051066,498
1506084051074,495
1506084051082,496
1506084051090,497
1506084051098,495
1506084051106,497
1506084051115,496
1506084051123,496
1506084051131,497
1506084051139,495
1506084051147,497
1506084051155,495
1506084051164,499
1506084051171,499
1506084051176,498
1506084051185,500
1506084051193,499
1506084051202,505
1506084051210,510
1506084051217,513
1506084051226,523
1506084051234,529
1506084051242,535
1506084051250,541
1506084051258,547
1506084051266,555
1506084051274,558
1506084051282,564
1506084051290,567
1506084051299,567
1506084051307,570
1506084051315,566
1506084051323,564
1506084051331,561
1506084051336,554
1506084051346,550
1506084051353,542
1506084051362,537
1506084051370,531
1506084051378,524
1506084051385,520
1506084051393,513
1506084051402,508
1506084051410,505
1506084051418,499
1506084051426,498
1506084051434,494
1506084051442,493
1506084051450,492
1506084051458,489
1506084051467,490
1506084051475,487
1506084051483,488
1506084051491,488
1506084051495,486
1506084051504,489
1506084051511,489
1506084051520,490
1506084051528,493
1506084051536,493
1506084051545,496
1506084051552,496
1506084051562,498
1506084051569,500
1506084051578,499
1506084051585,502
1506084051594,502
1506084051603,504
1506084051611,507
1506084051619,507
1506084051628,508
1506084051635,506
1506084051643,505
1506084051651,505
1506084051659,502
1506084051664,504
1506084051672,501
1506084051680,501
1506084051688,501
1506084051697,497
1506084051705,499
1506084051713,498
1506084051721,497
1506084051729,497
1506084051738,495
1506084051747,496
1506084051755,494
1506084051762,495
1506084051770,495
1506084051778,492
1506084051786,495
1506084051795,493
1506084051803,493
1506084051811,493
1506084051819,491
1506084051823,493
1506084051831,492
1506084051839,492
1506084051848,492
1506084051856,492
1506084051864,494
1506084051872,493
1506084051880,495
1506084051888,500
1506084051896,499
1506084051905,502
1506084051913,503
1506084051921,501
1506084051929,504
1506084051938,498
1506084051946,503
1506084051954,499
1506084051963,500
1506084051971,502
1506084051979,497
1506084051983,502
1506084051991,505
1506084052000,505
1506084052008,510
1506084052016,513
1506084052024,521
1506084052032,527
1506084052040,534
1506084052049,543
1506084052057,548
1506084052065,556
1506084052073,561
1506084052082,565
1506084052090,569
1506084052099,567
1506084052106,569
1506084052115,565
1506084052122,563
1506084052131,560
1506084052138,553
1506084052142,551
1506084052151,543
1506084052160,538
1506084052168,533
1506084052176,526
1506084052185,522
1506084052192,515
1506084052200,510
1506084052209,507
1506084052217,502
1506084052225,500
1506084052233,497
1506084052241,495
1506084052249,495
1506084052258,491
1506084052266,493
1506084052275,491
1506084052283,494
1506084052291,497
1506084052299,494
1506084052302,496
1506084052310,497
1506084052319,499
1506084052327,501
1506084052335,500
1506084052343,504
1506084052351,503
1506084052359,502
1506084052368,503
1506084052376,499
1506084052384,498
1506084052392,496
1506084052400,496
1506084052408,497
1506084052417,495
1506084052425,497
1506084052434,496
1506084052442,497
1506084052450,499
1506084052458,497
1506084052462,500
1506084052470,499
1506084052478,498
1506084052487,498
1506084052495,497
1506084052503,498
1506084052511,497
1506084052519,496
1506084052528,496
1506084052535,493
1506084052544,495
1506084052552,493
1506084052560,494
1506084052568,495
1506084052576,493
1506084052585,495
1506084052593,494
1506084052601,494
1506084052609,494
1506084052617,492
1506084052621,494
1506084052629,494
1506084052638,494
1506084052646,496
1506084052654,495
1506084052662,497
1506084052670,496
1506084052678,495
1506084052687,498
1506084052695,496
1506084052703,497
1506084052711,497
1506084052720,498
1506084052728,499
1506084052737,497
1506084052745,500
1506084052753,499
1506084052761,499
1506084052770,502
1506084052778,502
1506084052782,505
1506084052790,507
1506084052798,510
1506084052806,515
1506084052814,518
1506084052822,527
1506084052830,532
1506084052839,539
1506084052848,547
1506084052856,551
1506084052864,560
1506084052872,565
1506084052880,567
1506084052888,570
1506084052897,569
1506084052905,570
1506084052913,566
1506084052921,563
1506084052929,560
1506084052937,553
1506084052942,550
1506084052950,543
1506084052958,537
1506084052966,532
1506084052974,524
1506084052982,521
1506084052990,516
1506084052999,511
1506084053007,508
1506084053015,502
1506084053023,502
1506084053031,499
1506084053040,497
1506084053048,498
1506084053056,493
1506084053064,494
1506084053072,494
1506084053081,492
1506084053089,494
1506084053096,492
1506084053101,493
1506084053109,493
1506084053117,494
1506084053126,497
1506084053134,496
1506084053142,498
1506084053151,499
1506084053159,500
1506084053167,503
1506084053175,501
1506084053183,504
1506084053191,504
1506084053200,504
1506084053208,506
1506084053216,505
1506084053225,507
1506084053232,506
1506084053240,505
1506084053249,507
1506084053257,504
1506084053261,505
1506084053269,505
1506084053277,503
1506084053285,503
1506084053293,500
1506084053301,501
1506084053309,499
1506084053319,497
1506084053327,498
1506084053335,495
1506084053343,496
1506084053351,495
1506084053359,494
1506084053367,495
1506084053376,494
1506084053384,494
1506084053392,494
1506084053400,494
1506084053408,496
1506084053416,495
1506084053424,497
1506084053428,496
1506084053437,497
1506084053445,500
1506084053454,499
1506084053462,501
1506084053470,501
1506084053478,501
1506084053486,502
1506084053494,501
1506084053503,503
1506084053511,501
1506084053519,502
1506084053527,503
1506084053535,500
1506084053544,502
1506084053552,500
1506084053560,500
1506084053568,501
1506084053576,500
1506084053584,502
1506084053589,504
1506084053597,506
1506084053605,512
1506084053613,515
1506084053621,523
1506084053629,529
1506084053638,535
1506084053646,545
1506084053654,549
1506084053662,557
1506084053670,563
1506084053678,567
1506084053687,571
1506084053696,571
1506084053704,572
1506084053712,570
1506084053720,567
1506084053728,565
1506084053736,559
1506084053744,556
1506084053749,550
1506084053757,543
1506084053765,540
1506084053773,532
1506084053781,528
1506084053789,523
1506084053797,517
1506084053805,514
1506084053813,510
1506084053822,508
1506084053831,506
1506084053839,503
1506084053847,504
1506084053855,501
1506084053863,502
1506084053871,500
1506084053879,499
1506084053887,499
1506084053896,497
1506084053903,498
1506084053910,498
1506084053916,497
1506084053925,499
1506084053933,497
1506084053941,499
1506084053949,500
1506084053957,500
1506084053965,502
1506084053973,501
1506084053981,503
1506084053989,504
1506084053998,506
1506084054007,507
1506084054015,506
1506084054023,508
1506084054031,509
1506084054039,508
1506084054048,510
1506084054056,508
1506084054064,508
1506084054069,507
1506084054077,505
1506084054085,506
1506084054093,503
1506084054101,503
1506084054109,501
1506084054117,499
1506084054126,501
1506084054134,498
1506084054142,498
1506084054150,497
1506084054158,496
1506084054166,498
1506084054174,495
1506084054182,497
1506084054191,497
1506084054199,496
1506084054207,497
1506084054215,496
1506084054223,498
1506084054227,499
1506084054235,497
1506084054245,500
1506084054253,499
1506084054261,500
1506084054270,500
1506084054278,499
1506084054285,501
1506084054294,499
1506084054301,501
1506084054309,500
1506084054317,499
1506084054326,502
1506084054333,500
1506084054341,501
1506084054350,500
1506084054358,499
1506084054366,501
1506084054375,500
1506084054383,503
1506084054388,506
1506084054396,508
1506084054404,515
1506084054412,518
1506084054421,525
1506084054429,532
1506084054437,537
1506084054444,545
1506084054453,550
1506084054461,557
1506084054469,562
1506084054478,565
1506084054486,569
1506084054494,568
1506084054502,568
1506084054510,566
1506084054518,562
1506084054526,560
1506084054535,552
1506084054542,548
1506084054547,542
1506084054555,534
1506084054563,530
1506084054571,522
1506084054579,516
1506084054588,511
1506084054596,504
1506084054605,500
1506084054613,494
1506084054620,493
1506084054629,490
1506084054638,487
1506084054646,489
1506084054655,486
1506084054662,486
1506084054670,487
1506084054678,485
1506084054686,487
1506084054694,486
1506084054702,489
1506084054706,491
1506084054715,491
1506084054723,494
1506084054731,494
1506084054740,497
1506084054748,499
1506084054756,499
1506084054764,503
1506084054773,502
1506084054781,504
1506084054789,505
1506084054798,505
1506084054806,506
1506084054815,505
1506084054822,506
1506084054831,505
1506084054839,503
1506084054847,504
1506084054854,502
1506084054863,501
1506084054870,500
1506084054875,498
1506084054883,499
1506084054891,497
1506084054900,497
1506084054908,496
1506084054916,493
1506084054924,495
1506084054932,492
1506084054940,493
1506084054948,493
1506084054957,491
1506084054965,493
1506084054973,491
1506084054981,492
1506084054989,493
1506084054997,492
1506084055006,495
1506084055014,493
1506084055022,496
1506084055030,496
1506084055034,494
1506084055043,496
1506084055051,495
1506084055059,496
1506084055067,497
1506084055075,495
1506084055083,497
1506084055091,495
1506084055100,496
1506084055108,496
1506084055116,494
1506084055124,497
1506084055132,494
1506084055141,497
1506084055150,499
1506084055157,499
1506084055166,505
1506084055175,507
1506084055183,513
1506084055190,520
1506084055194,524
1506084055202,533
1506084055210,537
1506084055219,545
1506084055227,551
1506084055235,553
1506084055243,560
1506084055251,560
1506084055259,561
1506084055267,562
1506084055276,559
1506084055285,557
1506084055293,552
1506084055301,548
1506084055309,543
1506084055317,535
1506084055325,530
1506084055333,522
1506084055342,516
1506084055349,511
1506084055354,504
1506084055362,501
1506084055370,495
1506084055378,493
1506084055386,490
1506084055395,487
1506084055403,488
1506084055411,484
1506084055419,485
1506084055428,486
1506084055436,483
1506084055444,486
1506084055452,486
1506084055460,487
1506084055469,490
1506084055477,490
1506084055485,494
1506084055493,494
1506084055501,496
1506084055509,499
1506084055514,498
1506084055522,502
1506084055530,503
1506084055538,504
1506084055547,506
1506084055554,504
1506084055562,507
1506084055571,505
1506084055579,505
1506084055587,506
1506084055595,503
1506084055603,505
1506084055612,501
1506084055620,500
1506084055628,500
1506084055636,496
1506084055645,497
1506084055652,494
1506084055660,494
1506084055669,493
1506084055674,490
1506084055682,492
1506084055690,490
1506084055698,490
1506084055707,490
1506084055714,488
1506084055723,491
1506084055731,489
1506084055739,489
1506084055747,491
1506084055755,488
1506084055763,492
1506084055771,490
1506084055779,491
1506084055788,493
1506084055797,491
1506084055805,494
1506084055813,493
1506084055821,493
1506084055829,495
1506084055833,493
1506084055841,496
1506084055850,494
1506084055858,495
1506084055866,497
1506084055874,494
1506084055883,497
1506084055891,495
1506084055899,495
1506084055907,497
1506084055915,496
1506084055923,501
1506084055931,502
1506084055940,506
1506084055948,512
1506084055956,516
1506084055964,524
1506084055972,530
1506084055980,538
1506084055988,546
1506084055992,550
1506084056001,559
1506084056009,562
1506084056017,567
1506084056026,570
1506084056034,568
1506084056042,570
1506084056050,566
1506084056058,564
1506084056066,560
1506084056075,552
1506084056083,549
1506084056091,541
1506084056099,535
1506084056107,529
1506084056115,521
1506084056124,522
1506084056132,519
1506084056140,513
1506084056148,510
1506084056152,504
1506084056160,504
1506084056169,501
1506084056177,498
1506084056186,498
1506084056193,490
1506084056202,490
1506084056210,487
1506084056218,487
1506084056226,488
1506084056234,487
1506084056243,489
1506084056251,490
1506084056259,491
1506084056267,494
1506084056275,492
1506084056284,496
1506084056292,496
1506084056299,498
1506084056307,501
1506084056312,499
1506084056320,503
1506084056328,502
1506084056336,501
1506084056345,503
1506084056353,500
1506084056361,503
1506084056369,500
1506084056377,500
1506084056386,502
1506084056394,498
1506084056402,500
1506084056410,498
1506084056418,496
1506084056427,496
1506084056435,493
1506084056443,495
1506084056451,491
1506084056459,490
1506084056467,491
1506084056471,489
1506084056480,491
1506084056488,489
1506084056496,489
1506084056504,492
1506084056512,489
1506084056521,492
1506084056529,493
1506084056537,493
1506084056545,495
1506084056553,492
1506084056561,497
1506084056570,494
1506084056578,494
1506084056587,496
1506084056595,493
1506084056603,497
1506084056611,497
1506084056619,496
1506084056627,499
1506084056631,498
1506084056640,500
1506084056648,499
1506084056656,499
1506084056664,504
1506084056672,501
1506084056680,500
1506084056689,497
1506084056697,495
1506084056706,497
1506084056714,494
1506084056722,498
1506084056730,499
1506084056738,502
1506084056746,508
1506084056755,511
1506084056763,519
1506084056771,525
1506084056779,532
1506084056787,542
1506084056792,545
1506084056800,553
1506084056808,558
1506084056817,560
1506084056824,564
1506084056832,562
1506084056840,564
1506084056848,561
1506084056857,557
1506084056865,555
1506084056873,547
1506084056881,543
1506084056889,536
1506084056898,529
1506084056906,525
1506084056914,517
1506084056922,514
1506084056930,508
1506084056939,503
1506084056946,501
1506084056954,497
1506084056959,497
1506084056967,494
1506084056976,493
1506084056985,494
1506084056993,492
1506084057001,494
1506084057009,493
1506084057017,491
1506084057025,494
1506084057033,492
1506084057041,494
1506084057050,495
1506084057058,495
1506084057066,497
1506084057074,496
1506084057082,499
1506084057090,499
1506084057098,499
1506084057107,502
1506084057115,500
1506084057119,503
1506084057127,502
1506084057137,501
1506084057144,502
1506084057152,500
1506084057160,501
1506084057168,500
1506084057177,499
1506084057184,500
1506084057193,497
1506084057201,498
1506084057209,497
1506084057217,495
1506084057225,496
1506084057233,493
1506084057242,495
1506084057250,494
1506084057258,492
1506084057266,494
1506084057274,491
1506084057278,493
1506084057286,493
1506084057295,491
1506084057304,494
1506084057313,492
1506084057321,494
1506084057329,493
1506084057337,493
1506084057344,495
1506084057353,493
1506084057361,495
1506084057369,495
1506084057377,495
1506084057385,498
1506084057394,496
1506084057402,499
1506084057410,499
1506084057418,498
1506084057426,501
1506084057434,499
1506084057438,501
1506084057446,500
1506084057454,499
1506084057464,501
1506084057472,497
1506084057480,499
1506084057487,499
1506084057497,497
1506084057506,499
1506084057512,496
1506084057520,498
1506084057529,499
1506084057537,499
1506084057545,503
1506084057554,504
1506084057561,511
1506084057569,516
1506084057578,521
1506084057586,531
1506084057594,536
1506084057598,544
1506084057606,551
1506084057614,555
1506084057622,562
1506084057631,563
1506084057639,567
1506084057647,568
1506084057655,566
1506084057664,566
1506084057672,561
1506084057680,559
1506084057689,554
1506084057698,546
1506084057705,544
1506084057714,535
1506084057721,530
1506084057730,525
1506084057738,518
1506084057746,515
1506084057754,509
1506084057758,508
1506084057766,504
1506084057774,501
1506084057782,503
1506084057791,499
1506084057799,500
1506084057807,500
1506084057815,497
1506084057823,499
1506084057832,497
1506084057840,498
1506084057848,498
1506084057856,499
1506084057865,501
1506084057874,499
1506084057882,503
1506084057889,505
1506084057897,503
1506084057906,507
1506084057914,505
1506084057918,507
1506084057926,509
1506084057934,508
1506084057942,511
1506084057951,509
1506084057959,511
1506084057967,511
1506084057975,509
1506084057983,511
1506084057991,508
1506084057999,509
1506084058008,508
1506084058016,505
1506084058025,507
1506084058032,503
1506084058041,504
1506084058050,503
1506084058057,501
1506084058066,502
1506084058073,499
1506084058077,500
1506084058086,499
1506084058094,496
1506084058102,498
1506084058110,495
1506084058119,497
1506084058127,496
1506084058135,495
1506084058143,497
1506084058151,494
1506084058160,495
1506084058168,496
1506084058176,494
1506084058184,497
1506084058192,495
1506084058200,496
1506084058209,498
1506084058218,496
1506084058225,499
1506084058234,498
1506084058237,500
1506084058245,500
1506084058253,499
1506084058262,503
1506084058270,501
1506084058278,504
1506084058286,505
1506084058294,504
1506084058302,507
1506084058311,506
1506084058319,507
1506084058327,508
1506084058335,507
1506084058345,509
1506084058352,506
1506084058360,508
1506084058368,508
1506084058377,508
1506084058385,512
1506084058393,513
1506084058397,518
1506084058405,523
1506084058414,526
1506084058421,534
1506084058430,538
1506084058438,545
1506084058446,550
1506084058454,553
1506084058462,559
1506084058470,558
1506084058479,560
1506084058487,562
1506084058495,558
1506084058503,558
1506084058511,553
1506084058519,549
1506084058527,546
1506084058536,539
1506084058544,537
1506084058552,529
1506084058556,525
1506084058565,521
1506084058574,515
1506084058582,514
1506084058590,509
1506084058598,508
1506084058606,507
1506084058614,504
1506084058622,505
1506084058631,502
1506084058639,503
1506084058647,503
1506084058655,501
1506084058663,504
1506084058671,502
1506084058679,505
1506084058688,506
1506084058696,505
1506084058705,509
1506084058712,507
1506084058720,509
1506084058725,511
1506084058733,510
1506084058741,513
1506084058749,511
1506084058757,512
1506084058765,513
1506084058773,510
1506084058781,513
1506084058790,512
1506084058798,511
1506084058806,512
1506084058815,509
1506084058823,510
1506084058831,507
1506084058840,507
1506084058848,506
1506084058856,502
1506084058865,504
1506084058872,500
1506084058880,499
1506084058885,499
1506084058893,495
1506084058901,496
1506084058909,492
1506084058917,491
1506084058925,490
1506084058933,486
1506084058942,486
1506084058950,484
1506084058958,484
1506084058966,485
1506084058974,481
1506084058982,485
1506084058991,483
1506084058999,485
1506084059007,487
1506084059015,486
1506084059023,490
1506084059032,491
1506084059039,494
1506084059044,497
1506084059052,497
1506084059060,504
1506084059068,504
1506084059076,507
1506084059085,511
1506084059093,509
1506084059101,514
1506084059109,513
1506084059117,513
1506084059126,513
1506084059134,512
1506084059142,513
1506084059150,510
1506084059158,510
1506084059166,510
1506084059175,506
1506084059183,508
1506084059191,505
1506084059199,504
1506084059203,505
1506084059211,503
1506084059220,506
1506084059228,506
1506084059236,509
1506084059244,514
1506084059253,516
1506084059261,524
1506084059269,529
1506084059277,537
1506084059285,546
1506084059293,549
1506084059302,557
1506084059310,561
1506084059318,565
1506084059326,567
1506084059334,565
1506084059342,568
1506084059350,564
1506084059358,561
1506084059363,559
1506084059371,551
1506084059379,549
1506084059388,541
1506084059396,535
1506084059405,531
1506084059413,524
1506084059421,521
1506084059429,515
1506084059437,510
1506084059446,507
1506084059454,502
1506084059462,501
1506084059470,498
1506084059478,496
1506084059487,495
1506084059494,493
1506084059503,494
1506084059511,492
1506084059519,493
1506084059523,494
1506084059531,492
1506084059540,496
1506084059548,495
1506084059556,496
1506084059564,499
1506084059572,499
1506084059581,503
1506084059589,503
1506084059597,505
1506084059605,508
1506084059613,507
1506084059621,511
1506084059630,511
1506084059638,512
1506084059646,513
1506084059654,511
1506084059662,511
1506084059671,509
1506084059679,509
1506084059683,508
1506084059691,505
1506084059699,506
1506084059707,502
1506084059715,500
1506084059725,501
1506084059733,497
1506084059740,499
1506084059749,497
1506084059757,494
1506084059765,495
1506084059773,491
1506084059781,493
1506084059789,491
1506084059798,490
1506084059805,492
1506084059814,488
1506084059822,491
1506084059830,491
1506084059839,491
1506084059845,493
1506084059852,491
1506084059860,494
1506084059868,494
1506084059876,495
1506084059885,497
1506084059893,496
1506084059900,500
1506084059908,500
1506084059917,501
1506084059925,504
1506084059933,502
1506084059941,504
1506084059949,503
1506084059958,503
1506084059966,504
1506084059974,501
1506084059982,503
1506084059990,501
1506084059998,501
1506084060003,502
1506084060011,499
1506084060020,501
1506084060027,501
1506084060035,502
1506084060044,506
1506084060052,505
1506084060060,510
1506084060068,515
1506084060076,521
1506084060084,529
1506084060092,533
1506084060100,542
1506084060109,548
1506084060117,553
1506084060125,560
1506084060133,561
1506084060141,564
1506084060150,564
1506084060158,563
1506084060162,562
1506084060170,557
1506084060178,554
1506084060186,548
1506084060195,543
1506084060203,538
1506084060211,529
1506084060220,525
1506084060227,518
1506084060236,512
1506084060244,508
1506084060252,501
1506084060260,498
1506084060268,494
1506084060276,490
1506084060284,490
1506084060293,486
1506084060301,487
1506084060309,485
1506084060317,484
1506084060322,487
1506084060330,485
1506084060338,488
1506084060346,488
1506084060354,487
1506084060362,491
1506084060371,490
1506084060380,493
1506084060387,495
1506084060396,496
1506084060403,500
1506084060413,498
1506084060421,501
1506084060429,503
1506084060437,503
1506084060445,507
1506084060453,504
1506084060461,506
1506084060469,507
1506084060477,505
1506084060485,507
1506084060490,504
1506084060498,507
1506084060506,506
1506084060514,504
1506084060523,506
1506084060531,502
1506084060539,504
1506084060547,502
1506084060555,499
1506084060565,500
1506084060572,497
1506084060580,499
1506084060589,498
1506084060597,497
1506084060604,499
1506084060613,496
1506084060621,499
1506084060629,499
1506084060637,498
1506084060645,502
1506084060649,499
1506084060658,501
1506084060666,500
1506084060674,499
1506084060682,501
1506084060690,499
1506084060698,501
1506084060707,500
1506084060715,499
1506084060723,502
1506084060731,499
1506084060739,502
1506084060748,502
1506084060756,500
1506084060764,502
1506084060773,500
1506084060780,502
1506084060789,500
1506084060797,499
1506084060805,501
1506084060809,498
1506084060817,501
1506084060826,501
1506084060834,501
1506084060842,506
1506084060850,507
1506084060858,513
1506084060866,517
1506084060874,522
1506084060883,530
1506084060891,535
1506084060899,543
1506084060907,549
1506084060915,553
1506084060925,560
1506084060932,560
1506084060940,565
1506084060948,566
1506084060956,565
1506084060964,565
1506084060968,561
1506084060977,558
1506084060985,555
1506084060994,549
1506084061002,546
1506084061010,538
1506084061018,534
1506084061027,528
1506084061035,521
1506084061043,520
1506084061051,513
1506084061060,511
1506084061068,508
1506084061076,503
1506084061085,502
1506084061092,497
1506084061101,496
1506084061109,493
1506084061116,491
1506084061124,492
1506084061129,488
1506084061137,490
1506084061145,489
1506084061153,488
1506084061161,491
1506084061169,489
1506084061178,491
1506084061186,493
1506084061195,493
1506084061203,496
1506084061211,494
1506084061219,496
1506084061227,497
1506084061236,496
1506084061244,500
1506084061252,498
1506084061260,500
1506084061268,502
1506084061276,501
1506084061284,505
1506084061288,502
1506084061297,504
1506084061305,504
1506084061313,501
1506084061321,508
1506084061329,501
1506084061337,501
1506084061346,499
1506084061354,497
1506084061362,499
1506084061370,496
1506084061378,496
1506084061387,496
1506084061395,495
1506084061403,496
1506084061412,494
1506084061420,496
1506084061428,496
1506084061436,495
1506084061444,498
1506084061448,495
1506084061456,498
1506084061465,498
1506084061473,496
1506084061481,498
1506084061489,496
1506084061497,498
1506084061506,498
1506084061514,497
1506084061522,500
1506084061530,497
1506084061538,500
1506084061547,501
1506084061555,499
1506084061563,503
1506084061571,501
1506084061579,502
1506084061587,502
1506084061595,501
1506084061603,503
1506084061607,500
1506084061616,501
1506084061624,501
1506084061632,501
1506084061640,505
1506084061648,505
1506084061657,509
1506084061665,514
1506084061673,517
1506084061681,526
1506084061689,530
1506084061697,538
1506084061706,544
1506084061715,548
1506084061723,556
1506084061731,558
1506084061739,562
1506084061748,566
1506084061756,564
1506084061764,566
1506084061768,563
1506084061776,561
1506084061784,558
1506084061792,551
1506084061800,548
1506084061808,540
1506084061816,536
1506084061825,530
1506084061833,523
1506084061841,520
1506084061849,513
1506084061857,510
1506084061867,507
1506084061875,501
1506084061883,500
1506084061891,498
1506084061899,498
1506084061907,497
1506084061915,495
1506084061923,497
1506084061928,495
1506084061936,496
1506084061944,497
1506084061952,495
1506084061961,498
1506084061969,497
1506084061977,498
1506084061985,499
1506084061993,499
1506084062001,502
1506084062010,500
1506084062018,504
1506084062026,504
1506084062034,502
1506084062042,506
1506084062051,504
1506084062059,506
1506084062067,506
1506084062075,505
1506084062083,508
1506084062087,506
1506084062096,506
1506084062104,506
1506084062112,502
1506084062120,503
1506084062128,499
1506084062136,498
1506084062145,498
1506084062153,494
1506084062161,496
1506084062169,492
1506084062177,493
1506084062186,493
1506084062193,490
1506084062202,491
1506084062210,489
1506084062218,490
1506084062226,491
1506084062235,489
1506084062242,492
1506084062250,490
1506084062255,491
1506084062263,494
1506084062271,492
1506084062279,496
1506084062288,494
1506084062295,496
1506084062305,497
1506084062313,495
1506084062321,499
1506084062329,496
1506084062337,498
1506084062346,499
1506084062354,497
1506084062362,500
1506084062370,498
1506084062378,499
1506084062386,501
1506084062394,499
1506084062402,501
1506084062410,499
1506084062415,500
1506084062423,501
1506084062431,498
1506084062440,501
1506084062448,500
1506084062456,501
1506084062465,503
1506084062473,502
1506084062481,507
1506084062489,510
1506084062497,515
1506084062505,521
1506084062513,525
1506084062522,534
1506084062530,539
1506084062538,546
1506084062546,554
1506084062554,556
1506084062562,563
1506084062570,565
1506084062575,566
1506084062583,569
1506084062591,567
1506084062599,567
1506084062608,562
1506084062616,559
1506084062624,555
1506084062632,547
1506084062640,544
1506084062648,536
1506084062657,531
1506084062665,527
1506084062673,520
1506084062681,518
1506084062689,512
1506084062697,509
1506084062705,506
1506084062714,501
1506084062722,503
1506084062730,499
1506084062735,498
1506084062744,498
1506084062752,495
1506084062760,496
1506084062767,495
1506084062775,495
1506084062784,497
1506084062792,496
1506084062800,498
1506084062808,497
1506084062816,499
1506084062824,501
1506084062832,499
1506084062841,503
1506084062849,502
1506084062857,503
1506084062866,505
1506084062874,503
1506084062882,507
1506084062890,507
1506084062894,507
1506084062902,509
1506084062911,506
1506084062919,509
1506084062927,507
1506084062935,508
1506084062943,509
1506084062952,505
1506084062960,507
1506084062968,504
1506084062976,502
1506084062985,503
1506084062992,500
1506084063001,500
1506084063009,499
1506084063017,498
1506084063025,498
1506084063033,495
1506084063041,497
1506084063049,495
1506084063054,494
1506084063062,497
1506084063070,495
1506084063078,497
1506084063087,497
1506084063094,497
1506084063103,499
1506084063112,497
1506084063120,501
1506084063128,500
1506084063136,501
1506084063145,503
1506084063152,501
1506084063160,504
1506084063169,503
1506084063177,502
1506084063185,504
1506084063193,501
1506084063201,504
1506084063209,502
1506084063213,501
1506084063221,502
1506084063229,498
1506084063238,500
1506084063246,499
1506084063255,498
1506084063264,500
1506084063271,497
1506084063279,500
1506084063288,500
1506084063296,503
1506084063304,508
1506084063312,511
1506084063320,518
1506084063328,524
1506084063336,530
1506084063345,538
1506084063353,542
1506084063361,549
1506084063369,553
1506084063373,556
1506084063381,560
1506084063389,559
1506084063397,561
1506084063406,559
1506084063415,555
1506084063423,555
1506084063431,548
1506084063439,545
1506084063448,539
1506084063456,533
1506084063463,529
1506084063472,521
1506084063480,519
1506084063488,513
1506084063496,509
1506084063504,507
1506084063512,501
1506084063520,501
1506084063528,498
1506084063533,496
1506084063541,497
1506084063549,494
1506084063557,496
1506084063566,495
1506084063574,495
1506084063582,497
1506084063590,495
1506084063598,498
1506084063607,498
1506084063615,498
1506084063624,501
1506084063632,499
1506084063640,502
1506084063648,502
1506084063657,503
1506084063664,506
1506084063672,503
1506084063681,506
1506084063689,505
1506084063693,504
1506084063701,506
1506084063709,504
1506084063717,505
1506084063726,504
1506084063733,503
1506084063742,504
1506084063750,501
1506084063758,502
1506084063766,500
1506084063775,499
1506084063783,499
1506084063791,495
1506084063799,496
1506084063809,494
1506084063817,493
1506084063825,494
1506084063833,491
1506084063841,492
1506084063849,492
1506084063852,491
1506084063860,493
1506084063869,491
1506084063877,493
1506084063885,492
1506084063893,491
1506084063901,494
1506084063910,492
1506084063918,495
1506084063926,494
1506084063934,494
1506084063943,497
1506084063951,496
1506084063959,498
1506084063967,497
1506084063975,498
1506084063983,501
1506084063991,498
1506084063999,501
1506084064008,501
1506084064015,500
1506084064020,503
1506084064028,501
1506084064036,503
1506084064044,503
1506084064052,502
1506084064061,503
1506084064070,500
1506084064078,503
1506084064086,503
1506084064094,503
1506084064102,506
1506084064110,506
1506084064119,512
1506084064127,517
1506084064135,522
1506084064143,530
1506084064151,534
1506084064159,543
1506084064168,548
1506084064176,553
1506084064180,559
1506084064188,559
1506084064196,563
1506084064205,563
1506084064213,561
1506084064221,562
1506084064229,556
1506084064237,554
1506084064246,550
1506084064254,543
1506084064262,539
1506084064270,532
1506084064279,529
1506084064287,523
1506084064295,517
1506084064303,515
1506084064311,508
1506084064320,507
1506084064328,504
1506084064336,501
1506084064340,501
1506084064348,498
1506084064356,498
1506084064365,497
1506084064372,496
1506084064381,499
1506084064389,495
1506084064397,498
1506084064406,498
1506084064414,497
1506084064422,499
1506084064430,499
1506084064438,501
1506084064446,502
1506084064455,502
1506084064463,506
1506084064471,504
1506084064479,506
1506084064487,507
1506084064495,506
1506084064499,508
1506084064508,505
1506084064516,506
1506084064525,507
1506084064533,505
1506084064541,507
1506084064549,504
1506084064557,506
1506084064565,504
1506084064574,502
1506084064582,504
1506084064590,500
1506084064598,502
1506084064607,502
1506084064614,499
1506084064623,501
1506084064631,499
1506084064639,500
1506084064647,500
1506084064655,499
1506084064659,501
1506084064667,498
1506084064675,499
1506084064684,499
1506084064692,499
1506084064700,501
1506084064708,498
1506084064716,499
1506084064725,500
1506084064733,498
1506084064742,500
1506084064750,499
1506084064757,501
1506084064766,502
1506084064774,501
1506084064782,504
1506084064791,502
1506084064798,504
1506084064807,504
1506084064815,503
1506084064819,506
1506084064827,504
1506084064835,505
1506084064844,506
1506084064852,504
1506084064860,507
1506084064868,505
1506084064876,508
1506084064884,510
1506084064892,512
1506084064901,519
1506084064909,521
1506084064917,528
1506084064925,534
1506084064933,539
1506084064941,546
1506084064950,548
1506084064958,553
1506084064966,556
1506084064974,556
1506084064978,559
1506084064986,556
1506084064995,556
1506084065004,554
1506084065012,548
1506084065020,546
1506084065028,539
1506084065037,535
1506084065045,531
1506084065053,525
1506084065061,522
1506084065069,515
1506084065077,512
1506084065085,507
1506084065093,503
1506084065101,503
1506084065110,497
1506084065118,497
1506084065126,496
1506084065134,494
1506084065138,496
1506084065146,495
1506084065155,497
1506084065163,497
1506084065172,496
1506084065180,498
1506084065188,497
1506084065196,499
1506084065204,500
1506084065212,499
1506084065221,503
1506084065229,504
1506084065237,505
1506084065245,508
1506084065253,507
1506084065261,510
1506084065270,508
1506084065278,509
1506084065286,510
1506084065294,508
1506084065298,511
1506084065306,509
1506084065314,509
1506084065323,509
1506084065331,506
1506084065340,508
1506084065347,505
1506084065356,504
1506084065364,503
1506084065372,500
1506084065380,502
1506084065388,498
1506084065396,498
1506084065405,499
1506084065413,496
1506084065421,498
1506084065429,496
1506084065437,497
1506084065446,497
1506084065454,496
1506084065459,498
1506084065467,496
1506084065475,496
1506084065483,496
1506084065491,495
1506084065499,498
1506084065507,496
1506084065515,497
1506084065523,498
1506084065531,497
1506084065539,499
1506084065548,498
1506084065556,499
1506084065564,500
1506084065572,499
1506084065580,501
1506084065588,498
1506084065597,499
1506084065606,500
1506084065614,498
1506084065622,501
1506084065626,500
1506084065634,503
1506084065643,507
1506084065651,510
1506084065659,519
1506084065667,519
1506084065674,524
1506084065683,530
1506084065691,533
1506084065700,541
1506084065708,544
1506084065716,548
1506084065724,554
1506084065732,554
1506084065740,557
1506084065749,556
1506084065757,555
1506084065765,553
1506084065773,547
1506084065781,546
1506084065786,538
1506084065794,535
1506084065802,530
1506084065811,524
1506084065818,522
1506084065827,515
1506084065835,511
1506084065843,509
1506084065851,504
1506084065859,504
1506084065867,501
1506084065876,500
1506084065884,499
1506084065892,495
1506084065900,496
1506084065908,492
1506084065917,492
1506084065925,492
1506084065933,489
1506084065941,492
1506084065946,491
1506084065953,492
1506084065961,494
1506084065971,494
1506084065978,498
1506084065987,497
1506084065995,499
1506084066003,501
1506084066011,499
1506084066020,503
1506084066027,502
1506084066036,502
1506084066044,503
1506084066052,500
1506084066060,502
1506084066068,500
1506084066077,501
1506084066085,501
1506084066093,497
1506084066101,499
1506084066105,497
1506084066113,496
1506084066122,497
1506084066130,494
1506084066138,496
1506084066146,494
1506084066155,494
1506084066163,495
1506084066171,493
1506084066179,494
1506084066187,493
1506084066195,493
1506084066203,494
1506084066211,491
1506084066220,495
1506084066228,493
1506084066236,493
1506084066244,495
1506084066253,493
1506084066261,495
1506084066265,495
1506084066273,496
1506084066282,498
1506084066290,496
1506084066298,499
1506084066306,498
1506084066314,498
1506084066322,503
1506084066332,500
1506084066340,501
1506084066348,499
1506084066355,500
1506084066363,501
1506084066371,498
1506084066380,501
1506084066388,499
1506084066396,499
1506084066404,499
1506084066412,498
1506084066420,501
1506084066425,502
1506084066433,505
1506084066441,511
1506084066449,513
1506084066457,521
1506084066465,527
1506084066473,533
1506084066482,541
1506084066490,544
1506084066499,552
1506084066507,555
1506084066516,558
1506084066523,560
1506084066532,559
1506084066539,561
1506084066548,558
1506084066555,555
1506084066564,552
1506084066572,546
1506084066580,544
1506084066584,537
1506084066592,532
1506084066601,528
1506084066609,521
1506084066617,519
1506084066625,513
1506084066633,510
1506084066641,508
1506084066650,503
1506084066658,503
1506084066667,501
1506084066675,499
1506084066684,500
1506084066692,497
1506084066700,499
1506084066708,498
1506084066715,498
1506084066724,500
1506084066732,497
1506084066740,500
1506084066744,499
1506084066752,499
1506084066761,502
1506084066769,501
1506084066777,505
1506084066785,505
1506084066793,506
1506084066801,509
1506084066809,507
1506084066817,510
1506084066826,509
1506084066834,509
1506084066843,511
1506084066851,508
1506084066860,509
1506084066868,508
1506084066875,507
1506084066884,508
1506084066892,505
1506084066900,506
1506084066904,504
1506084066912,502
1506084066920,503
1506084066928,500
1506084066937,500
1506084066945,498
1506084066953,497
1506084066961,499
1506084066969,495
1506084066978,497
1506084066986,496
1506084066994,495
1506084067003,498
1506084067011,496
1506084067019,497
1506084067027,497
1506084067035,497
1506084067043,500
1506084067053,498
1506084067060,501
1506084067064,500
1506084067072,499
1506084067080,502
1506084067088,500
1506084067097,502
1506084067105,502
1506084067113,502
1506084067121,504
1506084067129,502
1506084067137,504
1506084067146,502
1506084067153,502
1506084067162,504
1506084067170,500
1506084067178,503
1506084067186,502
1506084067194,502
1506084067202,504
1506084067211,505
1506084067219,510
1506084067223,514
1506084067231,519
1506084067239,527
1506084067247,530
1506084067256,540
1506084067265,545
1506084067273,551
1506084067281,559
1506084067289,561
1506084067297,566
1506084067305,567
1506084067314,566
1506084067322,567
1506084067330,563
1506084067338,561
1506084067346,556
1506084067355,550
1506084067362,548
1506084067371,539
1506084067378,537
1506084067387,530
1506084067391,524
1506084067399,522
1506084067407,516
1506084067415,514
1506084067424,509
1506084067432,506
1506084067440,506
1506084067448,501
1506084067456,503
1506084067465,500
1506084067473,498
1506084067481,500
1506084067489,497
1506084067497,498
1506084067506,498
1506084067514,497
1506084067522,500
1506084067530,498
1506084067538,501
1506084067546,502
1506084067551,502
1506084067559,505
1506084067567,503
1506084067575,506
1506084067583,506
1506084067591,505
1506084067600,508
1506084067609,506
1506084067617,508
1506084067625,508
1506084067633,507
1506084067641,509
1506084067650,506
1506084067658,508
1506084067666,508
1506084067674,506
1506084067682,509
1506084067690,506
1506084067698,506
1506084067706,506
1506084067711,504
1506084067719,504
1506084067727,500
1506084067735,501
1506084067743,499
1506084067751,497
1506084067760,499
1506084067768,495
1506084067776,496
1506084067784,495
1506084067792,494
1506084067800,496
1506084067809,494
1506084067817,495
1506084067825,495
1506084067833,495
1506084067842,498
1506084067850,496
1506084067859,498
1506084067866,499
1506084067871,497
1506084067879,500
1506084067887,498
1506084067895,500
1506084067904,500
1506084067912,500
1506084067920,503
1506084067928,500
1506084067936,503
1506084067945,502
1506084067953,500
1506084067961,502
1506084067969,499
1506084067977,502
1506084067985,502
1506084067994,503
1506084068002,507
1506084068010,508
1506084068018,515
1506084068026,519
1506084068030,524
1506084068039,533
1506084068047,537
1506084068055,546
1506084068063,552
1506084068071,555
1506084068080,563
1506084068088,564
1506084068096,567
1506084068104,568
1506084068112,566
1506084068120,566
1506084068128,560
1506084068136,559
1506084068145,553
1506084068153,546
1506084068161,544
1506084068169,535
1506084068177,531
1506084068185,526
1506084068190,520
1506084068198,518
1506084068206,512
1506084068214,510
1506084068222,508
1506084068230,505
1506084068238,505
1506084068247,502
1506084068255,502
1506084068263,501
1506084068271,500
1506084068279,501
1506084068288,499
1506084068296,501
1506084068304,502
1506084068312,501
1506084068321,503
1506084068329,501
1506084068337,504
1506084068345,505
1506084068350,505
1506084068357,509
1506084068366,509
1506084068374,510
1506084068382,510
1506084068390,511
1506084068398,512
1506084068407,515
1506084068415,516
1506084068423,512
1506084068432,509
1506084068440,511
1506084068448,506
1506084068456,507
1506084068465,505
1506084068473,502
1506084068481,503
1506084068489,500
1506084068497,500
1506084068506,499
1506084068511,497
1506084068519,499
1506084068526,496
1506084068534,498
1506084068543,498
1506084068551,496
1506084068559,500
1506084068567,497
1506084068575,499
1506084068584,499
1506084068592,498
1506084068600,500
1506084068608,498
1506084068616,500
1506084068625,500
1506084068632,499
1506084068640,501
1506084068649,499
1506084068657,501
1506084068665,502
1506084068670,501
1506084068678,504
1506084068686,502
1506084068693,504
1506084068702,505
1506084068710,503
1506084068718,505
1506084068726,503
1506084068735,504
1506084068743,505
1506084068751,503
1506084068759,508
1506084068768,507
1506084068776,510
1506084068785,514
1506084068792,517
1506084068800,525
1506084068808,530
1506084068817,538
1506084068825,546
1506084068833,551
1506084068837,560
1506084068847,562
1506084068855,567
1506084068862,571
1506084068871,570
1506084068880,571
1506084068886,567
1506084068896,565
1506084068903,561
1506084068911,554
1506084068919,550
1506084068927,541
1506084068936,536
1506084068944,530
1506084068952,522
1506084068960,520
1506084068968,513
1506084068976,509
1506084068984,507
1506084068992,501
1506084068997,501
1506084069005,498
1506084069013,497
1506084069021,496
1506084069029,494
1506084069037,496
1506084069046,493
1506084069054,494
1506084069062,495
1506084069070,494
1506084069079,496
1506084069086,495
1506084069095,496
1506084069103,498
1506084069111,498
1506084069119,501
1506084069127,500
1506084069136,502
1506084069144,505
1506084069152,502
1506084069156,505
1506084069164,504
1506084069172,504
1506084069181,506
1506084069189,503
1506084069197,504
1506084069205,502
1506084069213,502
1506084069222,502
1506084069230,498
1506084069238,501
1506084069246,498
1506084069254,498
1506084069262,498
1506084069271,494
1506084069279,495
1506084069287,493
1506084069295,493
1506084069303,492
1506084069311,489
1506084069316,491
1506084069324,490
1506084069332,490
1506084069340,492
1506084069348,490
1506084069357,492
1506084069365,491
1506084069373,492
1506084069381,494
1506084069389,492
1506084069398,495
1506084069407,493
1506084069414,494
1506084069422,496
1506084069431,494
1506084069438,497
1506084069447,495
1506084069455,496
1506084069463,498
1506084069471,495
1506084069475,499
1506084069484,497
1506084069492,498
1506084069500,500
1506084069509,499
1506084069517,503
1506084069526,505
1506084069533,509
1506084069542,515
1506084069550,518
1506084069558,528
1506084069568,533
1506084069575,540
1506084069583,548
1506084069592,552
1506084069600,559
1506084069607,561
1506084069616,564
1506084069624,566
1506084069632,564
1506084069636,564
1506084069644,559
1506084069652,555
1506084069660,550
1506084069669,542
1506084069677,538
1506084069685,530
1506084069693,524
1506084069701,519
1506084069710,512
1506084069718,510
1506084069726,504
1506084069734,503
1506084069742,500
1506084069750,495
1506084069759,497
1506084069767,493
1506084069775,492
1506084069783,493
1506084069792,490
1506084069795,492
1506084069804,492
1506084069812,491
1506084069820,492
1506084069828,491
1506084069836,495
1506084069845,494
1506084069853,496
1506084069861,499
1506084069869,498
1506084069877,502
1506084069886,502
1506084069894,503
1506084069902,506
1506084069910,504
1506084069918,506
1506084069926,506
1506084069936,505
1506084069943,507
1506084069952,503
1506084069955,505
1506084069963,503
1506084069972,502
1506084069980,503
1506084069988,499
1506084069996,500
1506084070004,498
1506084070012,497
1506084070020,498
1506084070029,496
1506084070037,498
1506084070045,496
1506084070053,495
1506084070061,496
1506084070069,492
1506084070078,493
1506084070086,491
1506084070094,491
1506084070102,491
1506084070110,489
1506084070115,492
1506084070123,490
1506084070131,490
1506084070139,493
1506084070147,490
1506084070155,493
1506084070164,493
1506084070172,493
1506084070180,496
1506084070188,494
1506084070196,496
1506084070205,496
1506084070213,497
1506084070221,500
1506084070229,498
1506084070237,501
1506084070246,500
1506084070254,500
1506084070262,501
1506084070270,498
1506084070274,501
1506084070283,500
1506084070291,500
1506084070299,504
1506084070307,503
1506084070316,507
1506084070324,509
1506084070332,513
1506084070340,521
1506084070348,525
1506084070356,535
1506084070365,542
1506084070373,549
1506084070381,558
1506084070389,561
1506084070397,568
1506084070406,570
1506084070413,572
1506084070422,574
1506084070430,570
1506084070434,571
1506084070442,565
1506084070450,560
1506084070459,558
1506084070467,549
1506084070475,544
1506084070483,537
1506084070491,530
1506084070499,525
1506084070508,518
1506084070516,514
1506084070524,509
1506084070532,504
1506084070540,503
1506084070548,498
1506084070557,499
1506084070565,497
1506084070573,494
1506084070581,496
1506084070590,493
1506084070598,494
1506084070602,494
1506084070610,493
1506084070619,496
1506084070627,495
1506084070635,498
1506084070643,498
1506084070651,498
1506084070660,502
1506084070668,500
1506084070676,503
1506084070684,504
1506084070692,504
1506084070701,507
1506084070709,505
1506084070717,508
1506084070726,508
1506084070733,506
1506084070741,508
1506084070750,506
1506084070758,507
1506084070762,506
1506084070770,504
1506084070778,506
1506084070786,501
1506084070795,503
1506084070803,501
1506084070811,498
1506084070819,500
1506084070827,497
1506084070836,497
1506084070844,495
1506084070852,494
1506084070861,496
1506084070869,493
1506084070877,494
1506084070885,494
1506084070893,492
1506084070901,495
1506084070910,492
1506084070917,495
1506084070922,495
1506084070930,495
1506084070938,498
1506084070947,496
1506084070955,498
1506084070963,497
1506084070971,496
1506084070979,499
1506084070988,497
1506084070996,499
1506084071004,498
1506084071012,497
1506084071020,500
1506084071028,498
1506084071036,501
1506084071045,500
1506084071053,499
1506084071061,502
1506084071069,499
1506084071077,500
1506084071082,499
1506084071090,499
1506084071098,502
1506084071106,497
1506084071114,498
1506084071122,504
1506084071130,505
1506084071139,510
1506084071147,511
1506084071155,518
1506084071163,525
1506084071171,531
1506084071180,541
1506084071188,545
1506084071196,551
1506084071205,555
1506084071213,558
1506084071221,565
1506084071229,564
1506084071237,567
1506084071241,567
1506084071249,564
1506084071258,564
1506084071266,558
1506084071274,555
1506084071282,548
1506084071290,541
1506084071298,537
1506084071306,528
1506084071315,524
1506084071323,518
1506084071332,513
1506084071340,510
1506084071348,503
1506084071356,501
1506084071365,499
1506084071372,495
1506084071380,496
1506084071388,493
1506084071396,494
1506084071401,495
1506084071409,492
1506084071418,494
1506084071426,491
1506084071434,493
1506084071442,493
1506084071450,492
1506084071458,495
1506084071467,493
1506084071475,496
1506084071483,496
1506084071492,496
1506084071499,500
1506084071507,498
1506084071516,500
1506084071524,502
1506084071532,501
1506084071540,504
1506084071548,501
1506084071556,502
1506084071561,503
1506084071570,502
1506084071577,503
1506084071585,501
1506084071594,503
1506084071602,502
1506084071610,499
1506084071618,500
1506084071626,496
1506084071634,496
1506084071642,496
1506084071650,493
1506084071658,493
1506084071667,490
1506084071675,491
1506084071684,490
1506084071692,488
1506084071700,491
1506084071708,489
1506084071716,491
1506084071721,492
1506084071729,491
1506084071737,492
1506084071745,490
1506084071754,494
1506084071761,494
1506084071770,493
1506084071778,496
1506084071786,494
1506084071794,496
1506084071802,496
1506084071810,495
1506084071818,499
1506084071826,496
1506084071835,499
1506084071843,498
1506084071852,496
1506084071860,498
1506084071868,496
1506084071876,497
1506084071880,497
1506084071888,496
1506084071897,499
1506084071905,496
1506084071914,498
1506084071921,498
1506084071931,496
1506084071939,499
1506084071946,500
1506084071954,504
1506084071962,511
1506084071970,515
1506084071978,523
1506084071986,526
1506084071995,534
1506084072003,541
1506084072011,546
1506084072019,555
1506084072027,557
1506084072035,563
1506084072040,566
1506084072048,565
1506084072056,566
1506084072064,565
1506084072072,562
1506084072080,557
1506084072089,550
1506084072097,546
1506084072105,538
1506084072114,531
1506084072122,525
1506084072131,516
1506084072139,513
1506084072147,506
1506084072155,501
1506084072163,498
1506084072171,493
1506084072179,493
1506084072187,488
1506084072195,488
1506084072199,487
1506084072208,484
1506084072216,486
1506084072224,484
1506084072232,484
1506084072240,486
1506084072248,485
1506084072257,488
1506084072266,488
1506084072274,490
1506084072283,493
1506084072291,492
1506084072299,497
1506084072306,497
1506084072315,500
1506084072322,506
1506084072331,503
1506084072339,505
1506084072347,505
1506084072355,505
1506084072363,503
1506084072367,499
1506084072376,500
1506084072384,496
1506084072392,496
1506084072400,496
1506084072408,493
1506084072416,495
1506084072425,492
1506084072433,492
1506084072441,493
1506084072449,489
1506084072458,493
1506084072466,489
1506084072474,489
1506084072482,489
1506084072490,487
1506084072499,489
1506084072507,488
1506084072515,489
1506084072523,491
1506084072527,488
1506084072536,492
1506084072544,489
1506084072552,489
1506084072560,490
1506084072568,489
1506084072577,492
1506084072585,491
1506084072593,492
1506084072601,494
1506084072609,492
1506084072617,496
1506084072626,494
1506084072635,495
1506084072643,496
1506084072650,494
1506084072658,497
1506084072667,496
1506084072674,497
1506084072682,497
1506084072687,495
1506084072695,498
1506084072703,496
1506084072711,498
1506084072720,500
1506084072728,501
1506084072736,507
1506084072744,510
1506084072752,515
1506084072760,523
1506084072769,528
1506084072777,537
1506084072785,543
1506084072793,549
1506084072801,556
1506084072809,557
1506084072818,561
1506084072826,562
1506084072834,561
1506084072843,561
1506084072846,557
1506084072855,554
1506084072863,549
1506084072871,547
1506084072879,542
1506084072887,531
1506084072895,523
1506084072904,512
1506084072912,505
1506084072920,501
1506084072928,494
1506084072936,493
1506084072944,489
1506084072952,486
1506084072961,487
1506084072969,484
1506084072978,486
1506084072986,484
1506084072994,485
1506084073002,487
1506084073006,485
1506084073015,489
1506084073023,489
1506084073031,489
1506084073039,493
1506084073048,491
1506084073056,495
1506084073064,495
1506084073072,497
1506084073080,500
1506084073088,499
1506084073097,502
1506084073105,501
1506084073113,502
1506084073121,504
1506084073129,501
1506084073138,503
1506084073146,502
1506084073154,501
1506084073162,503
1506084073166,499
1506084073174,500
1506084073182,498
1506084073191,497
1506084073199,497
1506084073207,494
1506084073215,496
1506084073224,494
1506084073231,492
1506084073240,494
1506084073248,491
1506084073257,492
1506084073265,491
1506084073273,490
1506084073281,491
1506084073289,489
1506084073297,491
1506084073305,490
1506084073314,489
1506084073321,491
1506084073326,488
1506084073334,491
1506084073342,491
1506084073350,490
1506084073358,492
1506084073366,490
1506084073376,493
1506084073384,494
1506084073392,493
1506084073400,496
1506084073408,495
1506084073416,498
1506084073424,497
1506084073433,497
1506084073441,501
1506084073449,498
1506084073457,500
1506084073465,499
1506084073473,498
1506084073481,500
1506084073486,498
1506084073493,500
1506084073502,500
1506084073510,502
1506084073519,507
1506084073527,507
1506084073535,514
1506084073543,518
1506084073551,523
1506084073560,531
1506084073568,536
1506084073576,545
1506084073584,552
1506084073592,557
1506084073601,564
1506084073609,565
1506084073617,570
1506084073625,570
1506084073634,567
1506084073641,568
1506084073646,562
1506084073654,559
1506084073662,553
1506084073670,547
1506084073678,543
1506084073686,533
1506084073694,529
1506084073702,522
1506084073711,515
1506084073719,512
1506084073727,506
1506084073735,503
1506084073745,500
1506084073752,497
1506084073760,498
1506084073769,495
1506084073777,496
1506084073785,494
1506084073793,493
1506084073801,495
1506084073806,493
1506084073813,493
1506084073822,493
1506084073830,492
1506084073838,496
1506084073846,494
1506084073854,497
1506084073862,497
1506084073870,497
1506084073879,501
1506084073887,500
1506084073895,503
1506084073903,503
1506084073911,503
1506084073919,505
1506084073929,503
1506084073937,504
1506084073945,504
1506084073953,502
1506084073961,505
1506084073966,502
1506084073974,503
1506084073982,502
1506084073990,500
1506084073998,501
1506084074006,497
1506084074014,498
1506084074022,496
1506084074031,493
1506084074039,495
1506084074047,491
1506084074055,491
1506084074063,491
1506084074072,489
1506084074080,491
1506084074088,488
1506084074096,490
1506084074104,489
1506084074112,488
1506084074120,491
1506084074129,489
1506084074133,491
1506084074141,493
1506084074150,491
1506084074157,495
1506084074166,494
1506084074174,497
1506084074182,498
1506084074190,496
1506084074198,498
1506084074206,496
1506084074215,498
1506084074223,499
1506084074231,497
1506084074239,500
1506084074247,498
1506084074256,500
1506084074265,501
1506084074272,499
1506084074280,502
1506084074288,500
1506084074293,501
1506084074301,500
1506084074309,499
1506084074317,504
1506084074325,503
1506084074333,507
1506084074341,512
1506084074350,515
1506084074358,525
1506084074367,529
1506084074375,538
1506084074383,546
1506084074391,552
1506084074399,561
1506084074408,564
1506084074416,570
1506084074424,573
1506084074432,573
1506084074440,573
1506084074448,569
1506084074453,567
1506084074461,561
1506084074469,554
1506084074477,550
1506084074485,542
1506084074493,536
1506084074502,529
1506084074510,521
1506084074518,518
1506084074526,510
1506084074534,506
1506084074543,502
1506084074551,497
1506084074559,497
1506084074567,492
1506084074575,491
1506084074584,490
1506084074592,487
1506084074600,489
1506084074607,487
1506084074612,488
1506084074621,488
1506084074629,487
1506084074638,490
1506084074646,489
1506084074654,492
1506084074662,493
1506084074669,493
1506084074677,497
1506084074686,496
1506084074694,498
1506084074702,501
1506084074710,500
1506084074718,503
1506084074726,502
1506084074735,503
1506084074743,504
1506084074752,503
1506084074760,505
1506084074768,502
1506084074772,503
1506084074780,503
1506084074788,500
1506084074797,502
1506084074805,499
1506084074813,499
1506084074822,499
1506084074830,496
1506084074838,497
1506084074846,494
1506084074854,495
1506084074862,495
1506084074870,492
1506084074878,495
1506084074886,492
1506084074894,493
1506084074903,494
1506084074911,492
1506084074919,495
1506084074927,494
1506084074931,495
1506084074939,497
1506084074948,495
1506084074956,499
1506084074964,497
1506084074972,498
1506084074980,500
1506084074989,498
1506084074997,502
1506084075005,501
1506084075013,502
1506084075022,503
1506084075030,502
1506084075038,504
1506084075046,503
1506084075054,504
1506084075062,504
1506084075070,501
1506084075079,504
1506084075087,502
1506084075091,501
1506084075099,502
1506084075107,500
1506084075115,503
1506084075124,503
1506084075132,506
1506084075140,511
1506084075148,513
1506084075156,523
1506084075165,528
1506084075172,536
1506084075181,546
1506084075189,550
1506084075197,560
1506084075205,563
1506084075214,568
1506084075222,573
1506084075230,572
1506084075238,575
1506084075246,571
1506084075251,568
1506084075259,565
1506084075268,556
1506084075276,553
1506084075284,545
1506084075292,538
1506084075300,532
1506084075308,523
1506084075316,519
1506084075325,512
1506084075333,507
1506084075341,504
1506084075350,499
1506084075358,499
1506084075366,495
1506084075375,494
1506084075383,493
1506084075391,489
1506084075399,492
1506084075407,490
1506084075411,489
1506084075419,491
1506084075427,489
1506084075435,493
1506084075443,492
1506084075451,494
1506084075460,496
1506084075468,495
1506084075477,499
1506084075485,499
1506084075493,499
1506084075501,502
1506084075510,500
1506084075517,504
1506084075527,503
1506084075534,503
1506084075543,503
1506084075551,501
1506084075558,504
1506084075567,502
1506084075571,501
1506084075579,500
1506084075587,496
1506084075595,497
1506084075603,495
1506084075611,493
1506084075619,493
1506084075628,489
1506084075636,490
1506084075644,488
1506084075652,487
1506084075661,487
1506084075669,485
1506084075677,487
1506084075685,485
1506084075693,486
1506084075702,488
1506084075709,485
1506084075719,487
1506084075727,487
1506084075730,487
1506084075738,489
1506084075746,487
1506084075755,489
1506084075763,489
1506084075771,490
1506084075779,493
1506084075787,490
1506084075795,492
1506084075804,492
1506084075812,492
1506084075821,495
1506084075829,493
1506084075837,495
1506084075845,495
1506084075853,495
1506084075861,496
1506084075869,493
1506084075877,495
1506084075885,493
1506084075893,493
1506084075898,496
1506084075906,494
1506084075914,497
1506084075922,499
1506084075930,501
1506084075939,506
1506084075947,509
1506084075955,517
1506084075963,523
1506084075972,530
1506084075980,539
1506084075988,544
1506084075996,553
1506084076004,557
1506084076013,560
1506084076020,565
1506084076029,564
1506084076037,566
1506084076045,564
1506084076053,560
1506084076057,558
1506084076066,550
1506084076074,546
1506084076082,538
1506084076091,531
1506084076099,526
1506084076107,517
1506084076116,513
1506084076124,507
1506084076132,501
1506084076140,498
1506084076148,492
1506084076156,491
1506084076164,487
1506084076172,485
1506084076180,486
1506084076188,484
1506084076197,485
1506084076205,485
1506084076213,484
1506084076217,487
1506084076225,486
1506084076234,489
1506084076242,490
1506084076251,490
1506084076259,493
1506084076267,492
1506084076275,496
1506084076283,497
1506084076291,497
1506084076300,501
1506084076307,500
1506084076315,502
1506084076324,504
1506084076333,506
1506084076341,511
1506084076349,508
1506084076357,510
1506084076365,508
1506084076373,506
1506084076377,510
1506084076385,505
1506084076394,506
1506084076402,503
1506084076410,501
1506084076418,500
1506084076426,494
1506084076434,493
1506084076443,494
1506084076451,494
1506084076459,495
1506084076467,492
1506084076476,493
1506084076484,492
1506084076492,490
1506084076500,487
1506084076508,483
1506084076516,484
1506084076525,484
1506084076532,483
1506084076537,486
1506084076545,485
1506084076553,487
1506084076561,489
1506084076569,490
1506084076578,495
1506084076586,494
1506084076594,496
1506084076602,497
1506084076610,497
1506084076619,500
1506084076627,497
1506084076635,499
1506084076643,499
1506084076651,497
1506084076660,501
1506084076668,497
1506084076677,500
1506084076685,498
1506084076692,498
1506084076697,501
1506084076705,499
1506084076713,504
1506084076721,507
1506084076729,510
1506084076737,517
1506084076745,521
1506084076754,530
1506084076762,537
1506084076771,548
1506084076779,559
1506084076787,565
1506084076795,574
1506084076804,575
1506084076812,577
1506084076820,577
1506084076828,573
1506084076836,570
1506084076845,566
1506084076852,560
1506084076857,556
1506084076865,547
1506084076872,542
1506084076881,535
1506084076889,526
1506084076897,522
1506084076905,514
1506084076913,511
1506084076922,508
1506084076930,502
1506084076938,501
1506084076946,497
1506084076955,497
1506084076963,495
1506084076971,493
1506084076979,494
1506084076987,491
1506084076995,493
1506084077004,493
1506084077011,492
1506084077016,496
1506084077024,494
1506084077032,496
1506084077040,497
1506084077048,496
1506084077057,499
1506084077065,498
1506084077073,501
1506084077082,501
1506084077090,500
1506084077098,503
1506084077106,501
1506084077115,503
1506084077123,503
1506084077131,502
1506084077139,505
1506084077147,502
1506084077155,503
1506084077164,503
1506084077172,500
1506084077176,502
1506084077185,498
1506084077192,498
1506084077201,497
1506084077208,493
1506084077217,495
1506084077225,492
1506084077233,491
1506084077241,492
1506084077249,489
1506084077257,491
1506084077266,489
1506084077274,491
1506084077282,490
1506084077290,489
1506084077298,491
1506084077307,490
1506084077315,491
1506084077323,493
1506084077331,492
1506084077336,494
1506084077343,494
1506084077353,495
1506084077360,496
1506084077368,494
1506084077376,498
1506084077385,495
1506084077392,497
1506084077401,499
1506084077409,496
1506084077417,500
1506084077425,498
1506084077433,499
1506084077442,500
1506084077450,498
1506084077458,500
1506084077467,497
1506084077475,498
1506084077484,499
1506084077492,495
1506084077496,499
1506084077505,496
1506084077512,497
1506084077522,500
1506084077530,499
1506084077538,504
1506084077546,507
1506084077553,513
1506084077561,521
1506084077570,526
1506084077578,537
1506084077586,543
1506084077594,552
1506084077602,560
1506084077610,564
1506084077618,572
1506084077627,574
1506084077635,578
1506084077643,579
1506084077651,575
1506084077659,574
1506084077663,567
1506084077671,561
1506084077680,555
1506084077689,545
1506084077697,541
1506084077704,532
1506084077712,526
1506084077721,521
1506084077729,514
1506084077737,511
1506084077745,507
1506084077753,504
1506084077762,503
1506084077770,498
1506084077778,499
1506084077786,496
1506084077794,496
1506084077802,496
1506084077810,493
1506084077818,495
1506084077823,493
1506084077832,493
1506084077840,494
1506084077848,493
1506084077856,496
1506084077866,495
1506084077872,496
1506084077881,498
1506084077889,498
1506084077897,502
1506084077905,500
1506084077913,503
1506084077921,505
1506084077929,503
1506084077937,506
1506084077946,503
1506084077954,503
1506084077962,503
1506084077970,501
1506084077978,502
1506084077983,500
1506084077991,500
1506084078000,499
1506084078008,496
1506084078016,497
1506084078026,494
1506084078032,493
1506084078041,495
1506084078049,492
1506084078058,494
1506084078065,492
1506084078074,492
1506084078082,493
1506084078090,490
1506084078098,493
1506084078106,492
1506084078114,491
1506084078122,493
1506084078130,492
1506084078138,494
1506084078142,493
1506084078151,494
1506084078159,496
1506084078167,494
1506084078175,497
1506084078183,497
1506084078191,497
1506084078199,498
1506084078207,497
1506084078217,500
1506084078226,499
1506084078233,500
1506084078241,501
1506084078249,498
1506084078258,502
1506084078266,500
1506084078274,500
1506084078282,502
1506084078290,498
1506084078298,500
1506084078302,498
1506084078310,498
1506084078318,498
1506084078326,495
1506084078335,497
1506084078343,496
1506084078352,498
1506084078360,502
1506084078368,502
1506084078376,510
1506084078385,515
1506084078393,522
1506084078402,532
1506084078410,537
1506084078418,548
1506084078425,554
1506084078434,561
1506084078441,569
1506084078449,570
1506084078457,576
1506084078462,576
1506084078470,573
1506084078479,573
1506084078487,566
1506084078495,563
1506084078503,557
1506084078511,548
1506084078520,543
1506084078528,533
1506084078536,529
1506084078545,521
1506084078552,516
1506084078560,512
1506084078569,506
1506084078577,503
1506084078585,499
1506084078594,496
1506084078602,495
1506084078611,491
1506084078618,492
1506084078622,490
1506084078630,490
1506084078638,491
1506084078646,490
1506084078654,494
1506084078663,494
1506084078671,494
1506084078679,497
1506084078687,495
1506084078695,497
1506084078704,497
1506084078712,497
1506084078720,500
1506084078728,498
1506084078736,501
1506084078745,500
1506084078753,500
1506084078761,501
1506084078770,499
1506084078777,501
1506084078782,498
1506084078790,497
1506084078798,498
1506084078806,495
1506084078814,495
1506084078822,494
1506084078830,492
1506084078839,492
1506084078847,487
1506084078855,488
1506084078863,486
1506084078871,484
1506084078879,485
1506084078888,481
1506084078896,482
1506084078904,482
1506084078912,481
1506084078920,483
1506084078928,481
1506084078936,483
1506084078941,483
1506084078949,483
1506084078957,487
1506084078965,486
1506084078973,489
1506084078981,490
1506084078989,489
1506084078998,491
1506084079006,490
1506084079014,493
1506084079022,493
1506084079030,493
1506084079039,496
1506084079047,494
1506084079055,497
1506084079063,498
1506084079071,498
1506084079080,501
1506084079088,499
1506084079096,501
1506084079100,500
1506084079108,499
1506084079116,500
1506084079125,497
1506084079133,498
1506084079141,497
1506084079149,496
1506084079158,500
1506084079167,499
1506084079175,504
1506084079183,509
1506084079191,513
1506084079199,522
1506084079207,527
1506084079216,536
1506084079224,542
1506084079232,549
1506084079240,557
1506084079248,560
1506084079256,565
1506084079260,567
1506084079269,567
1506084079277,568
1506084079285,562
1506084079293,559
1506084079302,553
1506084079310,546
1506084079318,541
1506084079326,531
1506084079334,526
1506084079342,519
1506084079350,512
1506084079359,509
1506084079367,501
1506084079375,499
1506084079384,496
1506084079392,491
1506084079400,491
1506084079408,486
1506084079416,485
1506084079424,484
1506084079428,483
1506084079437,485
1506084079445,483
1506084079453,486
1506084079461,486
1506084079469,486
1506084079477,491
1506084079486,491
1506084079494,494
1506084079502,496
1506084079510,497
1506084079519,500
1506084079526,500
1506084079535,503
1506084079543,503
1506084079551,503
1506084079559,506
1506084079567,504
1506084079575,506
1506084079583,506
1506084079588,505
1506084079596,506
1506084079604,503
1506084079612,504
1506084079620,503
1506084079628,500
1506084079637,501
1506084079645,497
1506084079653,497
1506084079661,495
1506084079669,492
1506084079678,494
1506084079686,491
1506084079694,491
1506084079702,490
1506084079710,488
1506084079719,490
1506084079727,488
1506084079735,490
1506084079743,490
1506084079747,489
1506084079755,492
1506084079764,490
1506084079773,493
1506084079781,495
1506084079789,494
1506084079797,497
1506084079806,497
1506084079814,498
1506084079822,499
1506084079830,497
1506084079838,500
1506084079846,498
1506084079854,500
1506084079862,501
1506084079871,499
1506084079879,502
1506084079887,500
1506084079895,502
1506084079903,501
1506084079907,500
1506084079916,502
1506084079924,499
1506084079932,501
1506084079940,501
1506084079948,500
1506084079957,504
1506084079966,505
1506084079974,511
1506084079982,518
1506084079990,522
1506084079998,533
1506084080006,539
1506084080014,549
1506084080023,557
1506084080031,563
1506084080039,571
1506084080047,572
1506084080055,575
1506084080063,577
1506084080068,574
1506084080076,574
1506084080084,568
1506084080092,564
1506084080100,559
1506084080108,550
1506084080116,545
1506084080125,536
1506084080133,530
1506084080142,525
1506084080150,516
1506084080158,513
1506084080166,506
1506084080174,501
1506084080182,499
1506084080190,495
1506084080199,493
1506084080207,489
1506084080215,488
1506084080223,488
1506084080227,486
1506084080236,488
1506084080244,486
1506084080252,488
1506084080260,490
1506084080268,488
1506084080276,493
1506084080285,493
1506084080292,496
1506084080300,498
1506084080309,498
1506084080318,501
1506084080326,500
1506084080334,500
1506084080342,502
1506084080350,501
1506084080359,504
1506084080367,502
1506084080375,502
1506084080383,504
1506084080387,503
1506084080396,504
1506084080405,502
1506084080412,501
1506084080420,500
1506084080428,497
1506084080436,499
1506084080444,496
1506084080452,496
1506084080460,497
1506084080469,492
1506084080477,494
1506084080485,492
1506084080493,492
1506084080501,492
1506084080510,489
1506084080518,491
1506084080526,488
1506084080534,489
1506084080542,490
1506084080547,489
1506084080555,492
1506084080563,491
1506084080571,492
1506084080579,493
1506084080587,492
1506084080596,495
1506084080604,494
1506084080612,495
1506084080620,497
1506084080628,495
1506084080636,499
1506084080644,496
1506084080652,497
1506084080661,498
1506084080669,496
1506084080677,498
1506084080686,497
1506084080693,498
1506084080701,499
1506084080706,496
1506084080714,498
1506084080722,497
1506084080730,497
1506084080739,498
1506084080747,495
1506084080756,499
1506084080764,499
1506084080772,501
1506084080780,507
1506084080789,510
1506084080797,518
1506084080805,524
1506084080813,531
1506084080821,540
1506084080829,548
1506084080838,558
1506084080846,565
1506084080854,570
1506084080862,578
1506084080866,578
1506084080875,582
1506084080883,580
1506084080891,577
1506084080899,576
1506084080907,569
1506084080916,565
1506084080924,557
1506084080932,548
1506084080940,542
1506084080948,532
1506084080957,527
1506084080964,520
1506084080973,512
1506084080981,509
1506084080989,502
1506084080997,500
1506084081006,497
1506084081014,495
1506084081022,495
1506084081027,492
1506084081034,494
1506084081042,492
1506084081051,492
1506084081059,494
1506084081067,493
1506084081075,495
1506084081084,494
1506084081092,494
1506084081100,497
1506084081109,495
1506084081117,499
1506084081126,499
1506084081133,499
1506084081141,502
1506084081149,501
1506084081157,505
1506084081165,504
1506084081173,505
1506084081181,507
1506084081185,505
1506084081193,507
1506084081202,506
1506084081211,505
1506084081219,506
1506084081227,502
1506084081235,503
1506084081243,501
1506084081251,499
1506084081259,501
1506084081267,497
1506084081276,497
1506084081285,496
1506084081292,494
1506084081301,495
1506084081309,493
1506084081318,493
1506084081326,492
1506084081333,491
1506084081341,492
1506084081349,490
1506084081353,492
1506084081362,491
1506084081370,491
1506084081378,494
1506084081386,491
1506084081394,492
1506084081402,492
1506084081411,493
1506084081419,497
1506084081428,493
1506084081436,495
1506084081444,495
1506084081452,494
1506084081461,497
1506084081469,495
1506084081478,497
1506084081485,497
1506084081494,496
1506084081501,499
1506084081510,497
1506084081513,500
1506084081522,499
1506084081530,498
1506084081538,500
1506084081546,498
1506084081554,499
1506084081563,498
1506084081571,496
1506084081579,499
1506084081587,497
1506084081595,500
1506084081603,503
1506084081611,506
1506084081620,514
1506084081628,518
1506084081636,527
1506084081645,534
1506084081652,541
1506084081661,552
1506084081669,558
1506084081673,568
1506084081681,573
1506084081689,576
1506084081697,583
1506084081705,581
1506084081714,582
1506084081722,581
1506084081730,577
1506084081738,575
1506084081746,566
1506084081754,561
1506084081763,552
1506084081771,543
1506084081779,538
1506084081787,528
1506084081795,522
1506084081804,516
1506084081812,510
1506084081820,507
1506084081828,503
1506084081833,501
1506084081841,497
1506084081849,494
1506084081857,495
1506084081865,492
1506084081873,494
1506084081882,493
1506084081890,492
1506084081898,495
1506084081906,493
1506084081914,495
1506084081922,496
1506084081931,495
1506084081939,498
1506084081947,496
1506084081955,499
1506084081964,500
1506084081972,500
1506084081980,503
1506084081987,502
1506084081992,504
1506084082000,508
1506084082009,504
1506084082017,506
1506084082025,504
1506084082034,505
1506084082042,504
1506084082050,501
1506084082058,502
1506084082067,500
1506084082075,499
1506084082083,497
1506084082091,494
1506084082099,495
1506084082107,492
1506084082116,493
1506084082124,492
1506084082132,491
1506084082140,492
1506084082148,489
1506084082152,490
1506084082161,490
1506084082169,490
1506084082177,491
1506084082185,489
1506084082193,491
1506084082201,491
1506084082210,490
1506084082218,494
1506084082226,492
1506084082234,494
1506084082242,496
1506084082250,493
1506084082259,496
1506084082267,494
1506084082275,496
1506084082283,497
1506084082291,496
1506084082299,499
1506084082308,497
1506084082312,499
1506084082320,499
1506084082328,497
1506084082337,500
1506084082345,497
1506084082353,498
1506084082361,498
1506084082370,495
1506084082378,497
1506084082386,494
1506084082394,496
1506084082402,496
1506084082410,495
1506084082418,500
1506084082427,500
1506084082435,506
1506084082443,512
1506084082451,517
1506084082459,527
1506084082467,533
1506084082471,542
1506084082480,550
1506084082488,556
1506084082496,565
1506084082505,568
1506084082513,573
1506084082521,575
1506084082529,574
1506084082537,576
1506084082546,573
1506084082554,575
1506084082562,571
1506084082570,562
1506084082579,557
1506084082587,547
1506084082595,544
1506084082603,534
1506084082611,525
1506084082619,520
1506084082627,509
1506084082632,506
1506084082639,501
1506084082648,496
1506084082656,496
1506084082664,493
1506084082672,492
1506084082680,490
1506084082689,488
1506084082697,489
1506084082705,484
1506084082713,483
1506084082721,482
1506084082730,482
1506084082738,488
1506084082746,489
1506084082754,489
1506084082762,490
1506084082770,489
1506084082779,496
1506084082787,498
1506084082792,501
1506084082800,500
1506084082809,497
1506084082816,502
1506084082824,501
1506084082832,502
1506084082841,505
1506084082848,500
1506084082857,502
1506084082865,501
1506084082873,498
1506084082881,497
1506084082889,492
1506084082898,492
1506084082906,489
1506084082914,489
1506084082922,489
1506084082930,487
1506084082938,490
1506084082946,488
1506084082951,490
1506084082959,490
1506084082967,487
1506084082975,489
1506084082984,488
1506084082992,488
1506084083000,491
1506084083008,488
1506084083016,491
1506084083024,490
1506084083032,492
1506084083040,493
1506084083049,493
1506084083057,496
1506084083065,495
1506084083073,497
1506084083082,499
1506084083090,498
1506084083098,500
1506084083106,498
1506084083114,499
1506084083119,501
1506084083129,497
1506084083136,500
1506084083144,498
1506084083152,499
1506084083160,500
1506084083168,497
1506084083176,499
1506084083185,498
1506084083193,500
1506084083201,504
1506084083209,504
1506084083217,511
1506084083226,514
1506084083234,521
1506084083242,530
1506084083250,535
1506084083258,544
1506084083266,550
1506084083274,557
1506084083280,565
1506084083288,567
1506084083296,573
1506084083303,574
1506084083312,573
1506084083320,573
1506084083328,567
1506084083336,565
1506084083345,559
1506084083352,551
1506084083360,547
1506084083369,537
1506084083377,532
1506084083385,524
1506084083393,516
1506084083401,511
1506084083409,503
1506084083418,501
1506084083426,495
1506084083433,492
1506084083440,492
1506084083446,487
1506084083455,488
1506084083464,487
1506084083471,486
1506084083480,488
1506084083487,486
1506084083496,490
1506084083504,490
1506084083512,492
1506084083520,494
1506084083528,492
1506084083537,497
1506084083545,497
1506084083553,499
1506084083562,503
1506084083570,505
1506084083578,512
1506084083586,509
1506084083594,513
1506084083599,512
1506084083607,511
1506084083615,512
1506084083624,508
1506084083632,505
1506084083639,502
1506084083647,496
1506084083656,494
1506084083664,493
1506084083672,491
1506084083680,492
1506084083688,489
1506084083697,491
1506084083705,489
1506084083713,489
1506084083721,491
1506084083729,488
1506084083737,490
1506084083746,489
1506084083754,488
1506084083758,490
1506084083766,489
1506084083774,491
1506084083782,491
1506084083790,491
1506084083798,494
1506084083806,492
1506084083816,496
1506084083824,495
1506084083832,496
1506084083840,499
1506084083848,497
1506084083857,501
1506084083865,501
1506084083873,500
1506084083881,502
1506084083889,501
1506084083897,502
1506084083905,501
1506084083913,501
1506084083918,503
1506084083926,499
1506084083934,502
1506084083942,501
1506084083951,499
1506084083958,501
1506084083967,499
1506084083975,500
1506084083983,499
1506084083991,499
1506084084000,502
1506084084008,502
1506084084016,508
1506084084024,513
1506084084032,518
1506084084040,527
1506084084049,532
1506084084057,543
1506084084065,552
1506084084073,559
1506084084077,568
1506084084085,571
1506084084093,577
1506084084101,579
1506084084110,579
1506084084118,581
1506084084126,576
1506084084134,575
1506084084142,570
1506084084151,562
1506084084159,557
1506084084167,548
1506084084175,542
1506084084183,535
1506084084191,526
1506084084200,521
1506084084208,512
1506084084216,508
1506084084224,503
1506084084232,498
1506084084236,498
1506084084245,493
1506084084253,493
1506084084261,493
1506084084269,490
1506084084278,493
1506084084286,491
1506084084294,494
1506084084303,494
1506084084311,494
1506084084319,496
1506084084327,494
1506084084335,497
1506084084343,498
1506084084351,498
1506084084361,501
1506084084369,500
1506084084377,503
1506084084384,505
1506084084393,505
1506084084397,508
1506084084405,506
1506084084414,509
1506084084422,508
1506084084430,506
1506084084438,508
1506084084446,505
1506084084454,504
1506084084462,504
1506084084471,500
1506084084479,501
1506084084487,498
1506084084495,497
1506084084503,496
1506084084511,494
1506084084519,494
1506084084527,491
1506084084536,491
1506084084545,491
1506084084553,489
1506084084556,491
1506084084564,489
1506084084572,490
1506084084581,491
1506084084589,491
1506084084597,493
1506084084605,493
1506084084613,494
1506084084622,496
1506084084630,494
1506084084638,497
1506084084646,495
1506084084655,497
1506084084663,498
1506084084672,496
1506084084680,500
1506084084688,499
1506084084696,501
1506084084706,503
1506084084712,502
1506084084716,506
1506084084724,505
1506084084733,506
1506084084741,505
1506084084749,503
1506084084757,505
1506084084765,502
1506084084773,502
1506084084781,502
1506084084790,499
1506084084798,502
1506084084806,499
1506084084814,501
1506084084822,503
1506084084830,504
1506084084839,511
1506084084847,515
1506084084856,522
1506084084864,531
1506084084872,536
1506084084876,548
1506084084885,556
1506084084893,565
1506084084901,572
1506084084909,576
1506084084917,583
1506084084925,582
1506084084933,584
1506084084942,583
1506084084950,578
1506084084958,576
1506084084967,568
1506084084974,561
1506084084983,555
1506084084991,545
1506084084999,539
1506084085007,530
1506084085015,524
1506084085024,519
1506084085031,511
1506084085039,508
1506084085044,502
1506084085052,500
1506084085060,498
1506084085068,494
1506084085077,495
1506084085085,493
1506084085093,492
1506084085101,493
1506084085109,491
1506084085117,494
1506084085126,492
1506084085133,494
1506084085142,496
1506084085150,495
1506084085158,499
1506084085167,498
1506084085175,500
1506084085183,504
1506084085192,503
1506084085199,507
1506084085204,507
1506084085212,508
1506084085220,509
1506084085228,508
1506084085236,511
1506084085245,509
1506084085253,509
1506084085261,509
1506084085269,507
1506084085277,508
1506084085286,505
1506084085294,504
1506084085302,503
1506084085310,499
1506084085319,500
1506084085327,497
1506084085335,496
1506084085343,494
1506084085351,491
1506084085359,491
1506084085364,489
1506084085371,488
1506084085380,489
1506084085388,486
1506084085396,489
1506084085404,488
1506084085412,489
1506084085421,491
1506084085429,489
1506084085437,494
1506084085445,493
1506084085453,494
1506084085461,497
1506084085469,496
1506084085478,499
1506084085486,499
1506084085494,500
1506084085503,501
1506084085511,500
1506084085519,502
1506084085523,501
1506084085532,502
1506084085540,503
1506084085548,499
1506084085556,501
1506084085564,500
1506084085573,498
1506084085581,499
1506084085589,496
1506084085597,497
1506084085605,494
1506084085613,493
1506084085621,494
1506084085629,493
1506084085637,497
1506084085646,499
1506084085654,505
1506084085662,513
1506084085670,517
1506084085678,528
1506084085682,536
1506084085691,545
1506084085699,555
1506084085708,559
1506084085716,570
1506084085724,574
1506084085732,577
1506084085740,580
1506084085748,578
1506084085756,578
1506084085765,573
1506084085773,568
1506084085781,564
1506084085789,554
1506084085797,549
1506084085806,540
1506084085814,531
1506084085822,525
1506084085830,514
1506084085838,510
1506084085843,504
1506084085851,499
1506084085859,497
1506084085868,492
1506084085876,492
1506084085884,489
1506084085892,487
1506084085900,489
1506084085909,486
1506084085917,488
1506084085925,488
1506084085933,488
1506084085941,490
1506084085949,488
1506084085957,492
1506084085966,492
1506084085973,494
1506084085982,497
1506084085990,496
1506084085998,500
1506084086003,501
1506084086010,502
1506084086019,505
1506084086027,504
1506084086035,506
1506084086043,505
1506084086051,505
1506084086060,506
1506084086068,503
1506084086076,505
1506084086084,503
1506084086092,501
1506084086101,502
1506084086109,499
1506084086117,502
1506084086125,499
1506084086133,495
1506084086142,496
1506084086150,493
1506084086158,494
1506084086163,491
1506084086171,490
1506084086179,491
1506084086187,489
1506084086196,490
1506084086204,489
1506084086212,487
1506084086220,489
1506084086228,487
1506084086236,489
1506084086244,489
1506084086252,489
1506084086260,492
1506084086269,490
1506084086277,493
1506084086285,493
1506084086293,493
1506084086301,497
1506084086309,494
1506084086317,496
1506084086322,497
1506084086330,496
1506084086339,498
1506084086348,496
1506084086356,498
1506084086364,497
1506084086372,496
1506084086379,498
1506084086387,495
1506084086396,497
1506084086404,497
1506084086412,496
1506084086420,503
1506084086428,508
1506084086436,512
1506084086445,519
1506084086453,527
1506084086461,538
1506084086469,544
1506084086477,555
1506084086481,560
1506084086490,567
1506084086498,573
1506084086506,569
1506084086515,573
1506084086522,572
1506084086531,570
1506084086540,572
1506084086547,566
1506084086555,562
1506084086563,556
1506084086572,549
1506084086580,544
1506084086588,533
1506084086596,529
1506084086604,521
1506084086612,513
1506084086620,511
1506084086629,503
1506084086637,498
1506084086641,495
1506084086649,490
1506084086658,491
1506084086666,487
1506084086674,488
1506084086682,486
1506084086690,486
1506084086699,488
1506084086707,485
1506084086716,487
1506084086724,489
1506084086732,491
1506084086739,495
1506084086747,494
1506084086757,496
1506084086765,497
1506084086773,498
1506084086780,502
1506084086789,501
1506084086797,505
1506084086805,507
1506084086809,505
1506084086817,508
1506084086825,506
1506084086834,508
1506084086842,508
1506084086851,507
1506084086859,508
1506084086867,505
1506084086876,506
1506084086884,506
1506084086892,503
1506084086900,504
1506084086908,497
1506084086916,496
1506084086925,495
1506084086932,491
1506084086940,492
1506084086948,490
1506084086956,492
1506084086964,494
1506084086969,493
1506084086977,493
1506084086985,490
1506084086993,494
1506084087001,496
1506084087010,491
1506084087018,496
1506084087026,497
1506084087034,495
1506084087042,494
1506084087050,493
1506084087058,500
1506084087067,501
1506084087076,503
1506084087084,505
1506084087091,503
1506084087100,506
1506084087108,504
1506084087117,500
1506084087125,499
1506084087129,496
1506084087137,499
1506084087145,499
1506084087153,496
1506084087161,494
1506084087169,491
1506084087177,493
1506084087186,491
1506084087194,492
1506084087203,495
1506084087211,494
1506084087219,499
1506084087227,502
1506084087236,507
1506084087245,514
1506084087253,521
1506084087261,532
1506084087268,540
1506084087276,551
1506084087284,561
1506084087288,567
1506084087296,577
1506084087304,582
1506084087312,585
1506084087320,590
1506084087330,587
1506084087338,586
1506084087347,581
1506084087354,576
1506084087362,570
1506084087370,561
1506084087378,555
1506084087387,544
1506084087395,537
1506084087403,529
1506084087412,520
1506084087420,516
1506084087427,509
1506084087436,505
1506084087444,501
1506084087448,498
1506084087456,497
1506084087465,493
1506084087473,493
1506084087481,494
1506084087489,491
1506084087497,494
1506084087505,493
1506084087513,495
1506084087521,497
1506084087530,496
1506084087538,500
1506084087546,500
1506084087554,501
1506084087562,505
1506084087570,504
1506084087579,508
1506084087587,506
1506084087595,507
1506084087605,509
1506084087608,507
1506084087616,509
1506084087625,508
1506084087633,507
1506084087641,508
1506084087649,504
1506084087657,506
1506084087665,502
1506084087673,501
1506084087681,501
1506084087690,497
1506084087698,499
1506084087706,497
1506084087714,495
1506084087722,496
1506084087730,493
1506084087738,494
1506084087747,493
1506084087755,492
1506084087763,492
1506084087768,490
1506084087776,493
1506084087784,492
1506084087792,491
1506084087800,493
1506084087808,489
1506084087816,493
1506084087825,491
1506084087832,491
1506084087842,493
1506084087850,492
1506084087858,495
1506084087866,493
1506084087874,494
1506084087882,497
1506084087891,495
1506084087899,498
1506084087907,498
1506084087915,499
1506084087923,502
1506084087927,501
1506084087935,503
1506084087944,503
1506084087952,504
1506084087960,505
1506084087968,502
1506084087976,504
1506084087984,502
1506084087992,502
1506084088001,502
1506084088009,499
1506084088017,502
1506084088026,501
1506084088033,503
1506084088042,509
1506084088050,511
1506084088058,519
1506084088067,525
1506084088074,532
1506084088082,544
1506084088087,549
1506084088095,561
1506084088103,568
1506084088111,575
1506084088120,583
1506084088128,585
1506084088137,588
1506084088145,588
1506084088153,585
1506084088161,583
1506084088169,576
1506084088177,572
1506084088185,563
1506084088194,555
1506084088202,549
1506084088210,539
1506084088218,534
1506084088226,526
1506084088234,518
1506084088242,515
1506084088246,508
1506084088255,505
1506084088263,501
1506084088272,498
1506084088280,497
1506084088288,494
1506084088296,496
1506084088305,493
1506084088313,492
1506084088321,494
1506084088329,491
1506084088337,494
1506084088345,494
1506084088353,494
1506084088361,496
1506084088369,495
1506084088378,499
1506084088386,499
1506084088394,500
1506084088402,504
1506084088406,502
1506084088414,505
1506084088422,506
1506084088431,505
1506084088439,508
1506084088447,504
1506084088455,506
1506084088464,505
1506084088472,504
1506084088480,505
1506084088488,500
1506084088496,501
1506084088505,500
1506084088513,497
1506084088521,498
1506084088529,494
1506084088538,494
1506084088546,493
1506084088554,490
1506084088562,491
1506084088570,488
1506084088574,489
1506084088582,488
1506084088591,486
1506084088599,488
1506084088607,485
1506084088615,488
1506084088623,487
1506084088631,486
1506084088640,489
1506084088648,487
1506084088656,490
1506084088664,490
1506084088673,490
1506084088681,494
1506084088689,492
1506084088697,495
1506084088705,496
1506084088713,495
1506084088721,499
1506084088729,498
1506084088734,499
1506084088742,499
1506084088750,498
1506084088758,500
1506084088767,497
1506084088775,498
1506084088783,497
1506084088791,496
1506084088799,498
1506084088808,495
1506084088816,496
1506084088824,497
1506084088832,496
1506084088841,501
1506084088849,501
1506084088857,506
1506084088865,512
1506084088873,517
1506084088881,527
1506084088889,533
1506084088894,544
1506084088902,553
1506084088910,559
1506084088918,568
1506084088926,571
1506084088934,576
1506084088942,579
1506084088950,577
1506084088959,577
1506084088967,572
1506084088975,569
1506084088983,563
1506084088991,555
1506084088999,550
1506084089008,540
1506084089016,533
1506084089024,526
1506084089032,516
1506084089040,512
1506084089048,503
1506084089053,499
1506084089061,495
1506084089069,490
1506084089077,489
1506084089086,486
1506084089094,486
1506084089102,486
1506084089110,482
1506084089119,485
1506084089127,483
1506084089135,483
1506084089143,485
1506084089151,485
1506084089160,489
1506084089168,489
1506084089176,492
1506084089184,494
1506084089192,494
1506084089201,498
1506084089209,497
1506084089213,500
1506084089222,502
1506084089229,501
1506084089238,503
1506084089247,502
1506084089254,503
1506084089262,503
1506084089271,500
1506084089280,502
1506084089288,498
1506084089296,498
1506084089304,496
1506084089312,493
1506084089320,494
1506084089328,491
1506084089337,490
1506084089345,489
1506084089353,487
1506084089361,488
1506084089369,485
1506084089373,485
1506084089382,486
1506084089390,484
1506084089399,487
1506084089406,485
1506084089414,487
1506084089423,487
1506084089431,486
1506084089440,489
1506084089447,488
1506084089455,490
1506084089463,491
1506084089472,489
1506084089480,492
1506084089488,491
1506084089496,493
1506084089505,496
1506084089512,495
1506084089521,498
1506084089529,497
1506084089533,499
1506084089541,500
1506084089550,499
1506084089558,502
1506084089568,500
1506084089575,500
1506084089582,501
1506084089590,498
1506084089598,500
1506084089607,499
1506084089615,500
1506084089623,503
1506084089631,505
1506084089640,512
1506084089647,516
1506084089656,524
1506084089664,532
1506084089672,539
1506084089680,550
1506084089688,557
1506084089692,563
1506084089701,571
1506084089709,573
1506084089717,578
1506084089725,577
1506084089733,576
1506084089742,575
1506084089750,568
1506084089758,566
1506084089766,557
1506084089774,550
1506084089783,543
1506084089791,532
1506084089799,527
1506084089807,519
1506084089815,512
1506084089823,507
1506084089832,500
1506084089840,498
1506084089848,493
1506084089852,492
1506084089860,490
1506084089868,486
1506084089876,488
1506084089885,487
1506084089894,486
1506084089902,489
1506084089910,487
1506084089918,489
1506084089926,490
1506084089936,491
1506084089943,494
1506084089951,493
1506084089959,497
1506084089969,497
1506084089976,499
1506084089985,503
1506084089992,501
1506084090000,505
1506084090008,506
1506084090012,506
1506084090020,508
1506084090028,505
1506084090037,507
1506084090045,506
1506084090053,505
1506084090061,506
1506084090069,501
1506084090077,502
1506084090086,499
1506084090093,498
1506084090102,499
1506084090110,496
1506084090119,496
1506084090128,494
1506084090136,492
1506084090144,493
1506084090153,489
1506084090160,491
1506084090168,489
1506084090172,488
1506084090180,491
1506084090188,488
1506084090196,490
1506084090204,490
1506084090213,490
1506084090221,492
1506084090230,490
1506084090238,493
1506084090246,493
1506084090254,494
1506084090262,496
1506084090270,494
1506084090279,497
1506084090287,498
1506084090295,497
1506084090304,500
1506084090312,499
1506084090320,501
1506084090328,501
1506084090331,500
1506084090340,502
1506084090348,499
1506084090356,501
1506084090365,500
1506084090373,499
1506084090381,500
1506084090389,497
1506084090397,499
1506084090405,498
1506084090413,498
1506084090421,501
1506084090430,502
1506084090438,507
1506084090446,511
1506084090454,517
1506084090462,526
1506084090471,533
1506084090479,543
1506084090488,552
1506084090496,559
1506084090499,570
1506084090507,573
1506084090516,580
1506084090524,583
1506084090532,583
1506084090540,585
1506084090548,579
1506084090557,578
1506084090565,571
1506084090573,563
1506084090581,559
1506084090589,549
1506084090597,542
1506084090606,535
1506084090614,525
1506084090622,520
1506084090630,511
1506084090638,507
1506084090646,502
1506084090654,497
1506084090659,496
1506084090667,491
1506084090675,491
1506084090683,490
1506084090691,488
1506084090700,490
1506084090708,487
1506084090716,488
1506084090724,489
1506084090732,489
1506084090740,491
1506084090749,490
1506084090757,492
1506084090765,493
1506084090773,493
1506084090782,497
1506084090790,496
1506084090798,499
1506084090806,500
1506084090814,499
1506084090818,503
1506084090826,501
1506084090835,504
1506084090843,503
1506084090851,503
1506084090859,505
1506084090867,501
1506084090875,501
1506084090884,501
1506084090892,497
1506084090900,498
1506084090908,495
1506084090917,495
1506084090925,494
1506084090933,492
1506084090941,493
1506084090949,489
1506084090957,490
1506084090966,489
1506084090973,487
1506084090978,489
1506084090986,487
1506084090994,488
1506084091002,488
1506084091010,487
1506084091019,489
1506084091027,488
1506084091035,489
1506084091045,490
1506084091052,490
1506084091061,493
1506084091069,492
1506084091077,494
1506084091086,495
1506084091094,495
1506084091102,498
1506084091110,497
1506084091118,498
1506084091126,499
1506084091134,498
1506084091138,501
1506084091146,500
1506084091155,502
1506084091163,502
1506084091171,499
1506084091179,502
1506084091187,499
1506084091195,500
1506084091204,500
1506084091212,497
1506084091220,499
1506084091228,497
1506084091236,499
1506084091244,500
1506084091253,501
1506084091261,508
1506084091270,511
1506084091278,518
1506084091286,528
1506084091294,533
1506084091298,545
1506084091306,553
1506084091315,562
1506084091323,570
1506084091331,574
1506084091339,582
1506084091347,583
1506084091355,586
1506084091363,586
1506084091372,581
1506084091380,580
1506084091389,573
1506084091397,566
1506084091405,560
1506084091413,550
1506084091421,543
1506084091429,534
1506084091437,526
1506084091446,519
1506084091453,510
1506084091458,507
1506084091466,500
1506084091474,498
1506084091482,496
1506084091490,492
1506084091499,493
1506084091507,490
1506084091516,489
1506084091524,489
1506084091531,486
1506084091540,488
1506084091548,488
1506084091556,489
1506084091564,492
1506084091573,491
1506084091581,496
1506084091589,496
1506084091597,498
1506084091605,500
1506084091613,500
1506084091618,505
1506084091626,504
1506084091634,505
1506084091642,507
1506084091650,506
1506084091658,508
1506084091666,506
1506084091674,506
1506084091683,506
1506084091691,503
1506084091699,505
1506084091707,501
1506084091715,500
1506084091724,500
1506084091733,496
1506084091741,496
1506084091749,492
1506084091757,491
1506084091765,491
1506084091773,487
1506084091778,489
1506084091786,487
1506084091794,486
1506084091802,487
1506084091810,485
1506084091818,486
1506084091826,486
1506084091834,486
1506084091842,489
1506084091850,487
1506084091860,491
1506084091867,490
1506084091875,492
1506084091884,495
1506084091892,494
1506084091900,497
1506084091908,497
1506084091916,497
1506084091925,500
1506084091932,498
1506084091938,501
1506084091947,500
1506084091953,499
1506084091961,502
1506084091970,497
1506084091978,499
1506084091986,496
1506084091994,495
1506084092002,496
1506084092010,494
1506084092019,497
1506084092027,498
1506084092035,502
1506084092043,509
1506084092051,512
1506084092059,521
1506084092068,527
1506084092076,535
1506084092084,546
1506084092092,552
1506084092097,561
1506084092105,567
1506084092113,571
1506084092122,576
1506084092131,575
1506084092138,576
1506084092146,573
1506084092155,568
1506084092163,565
1506084092171,555
1506084092179,550
1506084092187,541
1506084092195,532
1506084092203,526
1506084092211,516
1506084092220,511
1506084092228,504
1506084092236,498
1506084092244,495
1506084092252,490
1506084092256,490
1506084092265,487
1506084092273,484
1506084092282,486
1506084092290,483
1506084092298,485
1506084092306,485
1506084092314,484
1506084092322,487
1506084092331,486
1506084092339,491
1506084092347,491
1506084092355,492
1506084092363,496
1506084092371,496
1506084092379,500
1506084092388,501
1506084092396,502
1506084092405,505
1506084092412,504
1506084092420,507
1506084092424,507
1506084092433,505
1506084092441,507
1506084092449,503
1506084092457,504
1506084092466,503
1506084092473,501
1506084092482,502
1506084092491,498
1506084092498,499
1506084092507,497
1506084092515,494
1506084092523,494
1506084092531,490
1506084092539,491
1506084092547,489
1506084092556,487
1506084092564,489
1506084092572,485
1506084092580,487
1506084092584,487
1506084092593,486
1506084092600,490
1506084092609,489
1506084092617,491
1506084092625,492
1506084092633,492
1506084092641,495
1506084092650,494
1506084092659,496
1506084092666,497
1506084092675,498
1506084092683,501
1506084092690,499
1506084092699,502
1506084092707,503
1506084092715,501
1506084092724,503
1506084092732,501
1506084092740,503
1506084092745,502
1506084092752,501
1506084092761,505
1506084092769,503
1506084092777,509
1506084092785,513
1506084092793,517
1506084092801,526
1506084092809,532
1506084092817,542
1506084092827,551
1506084092835,558
1506084092842,569
1506084092851,574
1506084092858,581
1506084092866,586
1506084092875,586
1506084092884,590
1506084092892,586
1506084092899,584
1506084092904,580
1506084092912,571
1506084092920,565
1506084092928,554
1506084092936,545
1506084092945,536
1506084092953,525
1506084092961,520
1506084092969,511
1506084092977,506
1506084092985,501
1506084092993,494
1506084093001,492
1506084093010,488
1506084093019,487
1506084093026,487
1506084093034,485
1506084093043,486
1506084093051,484
1506084093060,487
1506084093064,488
1506084093072,486
1506084093080,489
1506084093088,487
1506084093096,490
1506084093105,491
1506084093113,491
1506084093121,494
1506084093129,493
1506084093137,495
1506084093146,496
1506084093154,495
1506084093162,497
1506084093170,497
1506084093178,499
1506084093186,499
1506084093194,497
1506084093204,500
1506084093211,497
1506084093219,497
1506084093223,497
1506084093231,494
1506084093239,496
1506084093248,493
1506084093256,492
1506084093264,492
1506084093272,489
1506084093280,490
1506084093289,487
1506084093297,487
1506084093305,487
1506084093313,484
1506084093322,487
1506084093330,485
1506084093338,484
1506084093346,485
1506084093354,482
1506084093362,485
1506084093370,483
1506084093379,483
1506084093382,484
1506084093391,484
1506084093399,487
1506084093407,486
1506084093415,488
1506084093424,491
1506084093432,489
1506084093441,493
1506084093449,494
1506084093457,495
1506084093465,497
1506084093473,496
1506084093481,500
1506084093490,499
1506084093498,501
1506084093506,503
1506084093514,503
1506084093522,509
1506084093530,512
1506084093538,519
1506084093542,528
1506084093551,533
1506084093559,544
1506084093567,553
1506084093575,562
1506084093583,572
1506084093592,576
1506084093600,584
1506084093608,586
1506084093616,588
1506084093624,589
1506084093632,584
1506084093641,583
1506084093649,577
1506084093657,570
1506084093666,564
1506084093674,553
1506084093682,547
1506084093690,537
1506084093698,529
1506084093703,522
1506084093711,512
1506084093719,509
1506084093727,502
1506084093735,497
1506084093743,495
1506084093751,489
1506084093759,488
1506084093768,486
1506084093776,485
1506084093784,484
1506084093792,482
1506084093800,485
1506084093808,484
1506084093817,484
1506084093825,487
1506084093833,484
1506084093841,489
1506084093849,490
1506084093857,491
1506084093862,494
1506084093870,493
1506084093879,496
1506084093887,497
1506084093895,498
1506084093903,500
1506084093911,498
1506084093920,501
1506084093928,499
1506084093936,499
1506084093944,500
1506084093952,496
1506084093961,496
1506084093969,495
1506084093977,493
1506084093985,493
1506084093993,489
1506084094001,491
1506084094010,488
1506084094018,486
1506084094022,487
1506084094030,482
1506084094038,484
1506084094047,482
1506084094055,480
1506084094063,482
1506084094071,480
1506084094079,482
1506084094087,482
1506084094096,482
1506084094104,486
1506084094112,484
1506084094120,488
1506084094128,488
1506084094137,488
1506084094145,491
1506084094153,489
1506084094161,491
1506084094169,492
1506084094177,493
1506084094185,495
1506084094189,493
1506084094198,496
1506084094206,496
1506084094214,495
1506084094222,497
1506084094230,495
1506084094239,499
1506084094247,501
1506084094255,504
1506084094264,511
1506084094272,515
1506084094280,523
1506084094288,532
1506084094296,542
1506084094305,554
1506084094313,559
1506084094321,570
1506084094329,576
1506084094337,580
1506084094345,587
1506084094349,586
1506084094358,587
1506084094366,586
1506084094374,580
1506084094382,576
1506084094390,567
1506084094399,561
1506084094406,552
1506084094415,543
1506084094423,537
1506084094431,526
1506084094439,521
1506084094448,513
1506084094456,506
1506084094465,503
1506084094472,496
1506084094481,495
1506084094489,493
1506084094497,489
1506084094504,490
1506084094509,486
1506084094517,488
1506084094526,487
1506084094534,485
1506084094542,489
1506084094550,485
1506084094558,488
1506084094566,490
1506084094575,490
1506084094582,493
1506084094591,493
1506084094599,497
1506084094607,498
1506084094615,498
1506084094624,502
1506084094632,500
1506084094640,503
1506084094648,504
1506084094656,503
1506084094664,506
1506084094669,503
1506084094677,504
1506084094685,504
1506084094693,501
1506084094702,501
1506084094710,497
1506084094718,497
1506084094727,495
1506084094734,493
1506084094743,494
1506084094751,490
1506084094759,489
1506084094767,489
1506084094775,486
1506084094783,487
1506084094791,484
1506084094799,486
1506084094808,486
1506084094816,485
1506084094825,487
1506084094829,485
1506084094837,487
1506084094846,489
1506084094853,487
1506084094862,491
1506084094870,490
1506084094878,492
1506084094886,494
1506084094894,493
1506084094902,496
1506084094910,495
1506084094918,497
1506084094927,498
1506084094935,497
1506084094943,500
1506084094951,498
1506084094960,499
1506084094968,500
1506084094976,498
1506084094984,500
1506084094989,498
1506084094997,498
1506084095005,499
1506084095014,498
1506084095022,503
1506084095029,505
1506084095037,511
1506084095046,519
1506084095054,524
1506084095062,537
1506084095070,544
1506084095078,556
1506084095087,567
1506084095095,575
1506084095103,585
1506084095112,590
1506084095119,595
1506084095128,597
1506084095136,595
1506084095144,595
1506084095148,588
1506084095156,583
1506084095165,576
1506084095174,565
1506084095182,558
1506084095190,547
1506084095198,538
1506084095206,530
1506084095214,519
1506084095222,514
1506084095230,506
1506084095238,501
1506084095246,498
1506084095254,492
1506084095263,493
1506084095271,490
1506084095279,489
1506084095287,490
1506084095295,486
1506084095303,489
1506084095308,488
1506084095316,488
1506084095324,490
1506084095332,488
1506084095340,492
1506084095350,491
1506084095357,493
1506084095366,496
1506084095374,495
1506084095381,500
1506084095390,501
1506084095398,502
1506084095406,505
1506084095414,504
1506084095422,507
1506084095430,505
1506084095438,505
1506084095447,506
1506084095455,502
1506084095463,503
1506084095467,501
1506084095475,499
1506084095484,499
1506084095492,496
1506084095500,496
1506084095508,494
1506084095516,494
1506084095525,493
1506084095533,490
1506084095542,491
1506084095549,489
1506084095557,488
1506084095566,489
1506084095574,486
1506084095582,488
1506084095590,487
1506084095598,488
1506084095607,489
1506084095615,487
1506084095623,490
1506084095631,490
1506084095635,490
1506084095643,493
1506084095652,491
1506084095659,495
1506084095668,495
1506084095676,496
1506084095684,498
1506084095693,497
1506084095701,500
1506084095710,499
1506084095719,499
1506084095726,501
1506084095734,498
1506084095743,502
1506084095751,499
1506084095759,498
1506084095767,500
1506084095775,497
1506084095783,499
1506084095791,497
1506084095795,496
1506084095803,498
1506084095812,497
1506084095820,501
1506084095828,503
1506084095836,509
1506084095844,517
1506084095852,522
1506084095861,533
1506084095869,542
1506084095877,551
1506084095885,562
1506084095893,568
1506084095902,578
1506084095910,584
1506084095918,589
1506084095926,593
1506084095934,591
1506084095942,591
1506084095951,587
1506084095955,581
1506084095963,576
1506084095971,566
1506084095980,557
1506084095988,548
1506084095996,537
1506084096005,530
1506084096012,519
1506084096020,513
1506084096028,506
1506084096037,500
1506084096045,497
1506084096053,491
1506084096061,489
1506084096070,487
1506084096078,484
1506084096087,486
1506084096095,483
1506084096103,485
1506084096111,486
1506084096114,487
1506084096123,489
1506084096131,488
1506084096139,491
1506084096147,492
1506084096155,493
1506084096164,497
1506084096172,496
1506084096180,499
1506084096189,501
1506084096197,502
1506084096206,505
1506084096213,503
1506084096222,506
1506084096230,506
1506084096238,505
1506084096246,508
1506084096255,505
1506084096263,505
1506084096270,504
1506084096274,501
1506084096283,502
1506084096291,498
1506084096299,498
1506084096307,495
1506084096315,493
1506084096323,492
1506084096331,488
1506084096340,488
1506084096348,486
1506084096356,485
1506084096364,487
1506084096372,483
1506084096380,484
1506084096389,485
1506084096398,483
1506084096406,484
1506084096414,483
1506084096422,485
1506084096430,488
1506084096434,487
1506084096443,489
1506084096451,487
1506084096459,491
1506084096467,493
1506084096476,493
1506084096484,496
1506084096491,495
1506084096500,496
1506084096507,497
1506084096516,496
1506084096525,498
1506084096533,495
1506084096541,497
1506084096549,497
1506084096557,495
1506084096566,498
1506084096574,496
1506084096582,499
1506084096590,503
1506084096594,504
1506084096602,512
1506084096610,517
1506084096619,526
1506084096627,534
1506084096635,542
1506084096643,554
1506084096651,560
1506084096659,568
1506084096667,574
1506084096676,575
1506084096684,580
1506084096692,578
1506084096700,577
1506084096708,573
1506084096716,567
1506084096724,562
1506084096734,553
1506084096742,546
1506084096750,537
1506084096754,527
1506084096762,522
1506084096770,514
1506084096778,508
1506084096786,503
1506084096794,496
1506084096802,494
1506084096811,488
1506084096819,486
1506084096828,485
1506084096836,482
1506084096844,484
1506084096852,481
1506084096860,482
1506084096868,485
1506084096876,484
1506084096885,488
1506084096893,488
1506084096901,492
1506084096909,494
1506084096913,494
1506084096921,500
1506084096929,500
1506084096938,503
1506084096946,506
1506084096954,506
1506084096962,509
1506084096970,508
1506084096979,509
1506084096987,510
1506084096995,508
1506084097003,509
1506084097011,507
1506084097020,506
1506084097028,505
1506084097036,502
1506084097044,502
1506084097052,498
1506084097060,496
1506084097068,494
1506084097073,490
1506084097081,491
1506084097089,488
1506084097097,487
1506084097106,488
1506084097115,484
1506084097123,487
1506084097131,485
1506084097139,485
1506084097147,486
1506084097155,485
1506084097163,488
1506084097171,488
1506084097179,490
1506084097188,492
1506084097196,491
1506084097204,495
1506084097212,495
1506084097220,495
1506084097228,497
1506084097232,496
1506084097241,497
1506084097249,497
1506084097257,498
1506084097265,499
1506084097274,498
1506084097282,501
1506084097289,499
1506084097299,500
1506084097306,501
1506084097315,499
1506084097323,502
1506084097331,502
1506084097339,504
1506084097347,509
1506084097355,511
1506084097364,519
1506084097372,524
1506084097380,532
1506084097388,543
1506084097396,550
1506084097400,561
1506084097409,568
1506084097416,576
1506084097425,584
1506084097433,585
1506084097441,590
1506084097449,589
1506084097457,587
1506084097466,585
1506084097474,577
1506084097482,573
1506084097490,563
1506084097500,555
1506084097508,548
1506084097516,536
1506084097525,529
1506084097532,520
1506084097540,512
1506084097549,507
1506084097556,499
1506084097562,496
1506084097569,491
1506084097577,488
1506084097586,487
1506084097594,483
1506084097602,485
1506084097610,484
1506084097618,483
1506084097626,487
1506084097634,485
1506084097642,488
1506084097651,489
1506084097659,490
1506084097667,493
1506084097675,493
1506084097684,497
1506084097692,499
1506084097700,500
1506084097708,505
1506084097716,504
1506084097721,507
1506084097730,507
1506084097737,508
1506084097746,511
1506084097753,507
1506084097761,508
1506084097770,507
1506084097778,504
1506084097786,505
1506084097794,501
1506084097802,502
1506084097810,500
1506084097819,497
1506084097827,498
1506084097835,493
1506084097843,493
1506084097851,492
1506084097860,489
1506084097868,490
1506084097875,487
1506084097881,487
1506084097889,486
1506084097897,484
1506084097905,487
1506084097913,484
1506084097922,487
1506084097929,488
1506084097938,487
1506084097946,490
1506084097953,489
1506084097962,491
1506084097970,492
1506084097978,492
1506084097986,495
1506084097994,494
1506084098002,497
1506084098010,497
1506084098018,497
1506084098028,500
1506084098036,498
1506084098040,500
1506084098050,500
1506084098057,499
1506084098065,502
1506084098074,500
1506084098082,502
1506084098089,500
1506084098098,500
1506084098106,501
1506084098114,498
1506084098122,500
1506084098130,500
1506084098138,499
1506084098146,504
1506084098154,506
1506084098162,512
1506084098171,519
1506084098179,526
1506084098187,537
1506084098195,545
1506084098199,558
1506084098207,568
1506084098215,575
1506084098224,585
1506084098233,589
1506084098240,594
1506084098249,596
1506084098257,595
1506084098265,594
1506084098274,588
1506084098282,583
1506084098290,575
1506084098298,566
1506084098306,559
1506084098314,547
1506084098322,539
1506084098330,530
1506084098339,520
1506084098347,515
1506084098355,506
1506084098359,507
1506084098367,504
1506084098375,500
1506084098384,499
1506084098391,496
1506084098400,494
1506084098408,491
1506084098417,488
1506084098426,490
1506084098434,488
1506084098441,490
1506084098450,492
1506084098458,490
1506084098466,494
1506084098474,495
1506084098482,496
1506084098490,495
1506084098498,493
1506084098506,496
1506084098514,495
1506084098519,498
1506084098527,500
1506084098535,499
1506084098543,503
1506084098551,504
1506084098559,506
1506084098568,506
1506084098576,505
1506084098584,507
1506084098592,505
1506084098601,506
1506084098610,505
1506084098618,502
1506084098626,503
1506084098635,500
1506084098643,498
1506084098650,498
1506084098658,494
1506084098667,494
1506084098674,491
1506084098679,490
1506084098687,490
1506084098695,487
1506084098703,491
1506084098711,487
1506084098719,488
1506084098728,490
1506084098736,487
1506084098744,491
1506084098752,489
1506084098760,490
1506084098768,492
1506084098778,491
1506084098786,495
1506084098795,494
1506084098802,494
1506084098811,496
1506084098818,495
1506084098826,498
1506084098834,497
1506084098838,497
1506084098847,501
1506084098855,499
1506084098863,502
1506084098871,499
1506084098879,499
1506084098887,500
1506084098896,499
1506084098904,500
1506084098912,499
1506084098920,500
1506084098928,501
1506084098937,499
1506084098946,502
1506084098954,501
1506084098962,502
1506084098970,507
1506084098978,509
1506084098986,517
1506084098994,523
1506084098998,531
1506084099006,542
1506084099014,550
1506084099022,563
1506084099030,571
1506084099039,579
1506084099047,587
1506084099055,590
1506084099063,594
1506084099071,593
1506084099080,591
1506084099088,588
1506084099096,581
1506084099104,577
1506084099112,568
1506084099120,559
1506084099129,551
1506084099137,539
1506084099145,532
1506084099153,523
1506084099161,513
1506084099166,508
1506084099174,500
1506084099182,497
1506084099190,491
1506084099198,487
1506084099207,487
1506084099215,482
1506084099223,483
1506084099231,482
1506084099239,482
1506084099248,484
1506084099256,482
1506084099264,485
1506084099272,487
1506084099280,488
1506084099288,491
1506084099297,492
1506084099305,496
1506084099313,496
1506084099321,498
1506084099325,502
1506084099333,500
1506084099341,503
1506084099350,504
1506084099358,504
1506084099366,506
1506084099374,504
1506084099382,507
1506084099391,505
1506084099399,505
1506084099407,505
1506084099415,501
1506084099424,501
1506084099432,499
1506084099440,496
1506084099448,497
1506084099456,494
1506084099465,496
1506084099472,493
1506084099480,487
1506084099485,485
1506084099493,482
1506084099501,482
1506084099510,480
1506084099519,479
1506084099527,480
1506084099535,478
1506084099543,481
1506084099551,481
1506084099559,481
1506084099568,486
1506084099576,484
1506084099584,488
1506084099592,489
1506084099600,490
1506084099609,492
1506084099616,491
1506084099625,494
1506084099632,494
1506084099641,494
1506084099645,498
1506084099653,496
1506084099661,498
1506084099669,498
1506084099678,497
1506084099686,499
1506084099694,498
1506084099702,499
1506084099711,498
1506084099719,497
1506084099728,498
1506084099736,494
1506084099744,496
1506084099752,494
1506084099760,494
1506084099768,497
1506084099777,496
1506084099785,502
1506084099793,507
1506084099801,513
1506084099806,523
1506084099813,529
1506084099821,540
1506084099830,548
1506084099838,555
1506084099846,566
1506084099854,570
1506084099862,576
1506084099870,581
1506084099878,585
1506084099886,583
1506084099895,576
1506084099903,572
1506084099911,565
1506084099919,556
1506084099928,550
1506084099936,540
1506084099944,534
1506084099952,529
1506084099960,517
1506084099964,510
1506084099973,499
1506084099981,494
1506084099989,488
1506084099997,482
1506084100005,481
1506084100014,476
1506084100022,477
1506084100030,475
1506084100038,474
1506084100046,476
1506084100054,475
1506084100063,477
1506084100071,479
1506084100079,480
1506084100087,484
1506084100095,486
1506084100103,493
1506084100111,496
1506084100119,496
1506084100124,501
1506084100132,495
1506084100140,497
1506084100148,497
1506084100156,496
1506084100165,499
1506084100174,497
1506084100182,498
1506084100190,498
1506084100198,497
1506084100206,498
1506084100215,496
1506084100223,497
1506084100231,496
1506084100239,495
1506084100247,497
1506084100255,493
1506084100264,493
1506084100272,492
1506084100280,489
1506084100284,490
1506084100292,487
1506084100300,487
1506084100309,486
1506084100317,484
1506084100326,485
1506084100334,482
1506084100341,483
1506084100350,483
1506084100358,481
1506084100366,485
1506084100374,483
1506084100382,485
1506084100390,487
1506084100398,486
1506084100407,489
1506084100416,487
1506084100424,490
1506084100432,491
1506084100440,491
1506084100445,495
1506084100453,494
1506084100461,495
1506084100469,497
1506084100477,496
1506084100485,498
1506084100493,496
1506084100502,496
1506084100510,497
1506084100518,495
1506084100526,497
1506084100534,496
1506084100542,498
1506084100551,500
1506084100559,501
1506084100567,508
1506084100575,512
1506084100583,519
1506084100591,528
1506084100599,534
1506084100604,546
1506084100612,553
1506084100620,562
1506084100628,571
1506084100636,575
1506084100645,582
1506084100653,582
1506084100661,583
1506084100669,583
1506084100677,578
1506084100686,576
1506084100694,568
1506084100702,561
1506084100710,555
1506084100718,544
1506084100727,537
1506084100734,528
1506084100743,520
1506084100751,514
1506084100759,504
