time,value
1506084169999,488
1506084169999,490
1506084170000,490
1506084170000,491
1506084170001,493
1506084170001,492
1506084170002,494
1506084170002,494
1506084170002,495
1506084170003,496
1506084170003,496
1506084170004,497
1506084170004,497
1506084170005,498
1506084170005,498
1506084170006,498
1506084170006,498
1506084170006,498
1506084170007,498
1506084170008,498
1506084170008,498
1506084170008,498
1506084170009,9
1506084170009,488
1506084170009,488
1506084170010,489
1506084170010,488
1506084170010,490
1506084170011,490
1506084170011,491
1506084170011,493
1506084170012,492
1506084170012,494
1506084170013,494
1506084170013,495
1506084170013,496
1506084170014,496
1506084170014,497
1506084170014,497
1506084170015,498
1506084170015,498
1506084170015,498
1506084170016,498
1506084170016,498
1506084170017,498
1506084170017,498
1506084170017,498
1506084170017,498
1506084171567,498
1506084171575,465
1506084171583,448
1506084171591,442
1506084171599,440
1506084171607,439
1506084171615,442
1506084171625,444
1506084171633,449
1506084171640,454
1506084171645,459
1506084171653,465
1506084171661,470
1506084171669,476
1506084171677,480
1506084171686,485
1506084171694,489
1506084171702,492
1506084171710,495
1506084171718,498
1506084171726,498
1506084171735,500
1506084171743,499
1506084171751,500
1506084171759,499
1506084171767,498
1506084171776,497
1506084171784,495
1506084171792,494
1506084171800,494
1506084171805,492
1506084171813,493
1506084171821,493
1506084171829,495
1506084171837,499
1506084171845,505
1506084171854,513
1506084171862,521
1506084171870,532
1506084171878,543
1506084171886,553
1506084171894,565
1506084171902,574
1506084171911,583
1506084171919,590
1506084171927,594
1506084171935,598
1506084171943,597
1506084171952,595
1506084171960,591
1506084171964,583
1506084171972,575
1506084171980,566
1506084171989,556
1506084171997,546
1506084172005,534
1506084172013,525
1506084172021,514
1506084172029,505
1506084172038,498
1506084172046,492
1506084172054,488
1506084172062,483
1506084172070,481
1506084172078,480
1506084172087,478
1506084172095,477
1506084172103,477
1506084172111,477
1506084172119,477
1506084172124,478
1506084172132,480
1506084172140,482
1506084172148,485
1506084172156,486
1506084172165,488
1506084172173,492
1506084172181,493
1506084172189,496
1506084172197,499
1506084172206,501
1506084172214,504
1506084172222,505
1506084172230,506
1506084172238,508
1506084172246,508
1506084172254,508
1506084172263,506
1506084172271,506
1506084172279,504
1506084172283,502
1506084172291,501
1506084172299,499
1506084172308,497
1506084172316,495
1506084172324,491
1506084172332,491
1506084172341,488
1506084172349,487
1506084172357,486
1506084172365,485
1506084172373,485
1506084172381,484
1506084172389,484
1506084172397,485
1506084172406,484
1506084172414,485
1506084172422,485
1506084172430,487
1506084172438,490
1506084172443,494
1506084172451,496
1506084172459,494
1506084172467,496
1506084172475,498
1506084172483,498
1506084172492,501
1506084172500,500
1506084172508,500
1506084172516,501
1506084172525,497
1506084172533,494
1506084172541,492
1506084172550,491
1506084172558,491
1506084172566,491
1506084172574,491
1506084172582,490
1506084172590,492
1506084172598,492
1506084172607,489
1506084172611,489
1506084172619,488
1506084172627,489
1506084172635,492
1506084172644,495
1506084172652,501
1506084172660,508
1506084172668,517
1506084172676,529
1506084172685,543
1506084172693,557
1506084172701,567
1506084172709,578
1506084172717,593
1506084172726,602
1506084172734,610
1506084172742,613
1506084172750,615
1506084172758,614
1506084172766,609
1506084172770,599
1506084172779,588
1506084172787,578
1506084172796,567
1506084172804,555
1506084172812,545
1506084172820,534
1506084172828,523
1506084172836,517
1506084172845,506
1506084172853,497
1506084172861,489
1506084172869,485
1506084172877,482
1506084172885,479
1506084172893,479
1506084172902,478
1506084172910,478
1506084172918,479
1506084172926,479
1506084172931,480
1506084172939,480
1506084172947,482
1506084172955,483
1506084172963,483
1506084172971,486
1506084172980,487
1506084172988,489
1506084172996,491
1506084173004,492
1506084173012,495
1506084173020,497
1506084173028,500
1506084173037,501
1506084173045,503
1506084173053,505
1506084173061,506
1506084173070,507
1506084173078,507
1506084173086,506
1506084173091,507
1506084173098,505
1506084173106,504
1506084173115,504
1506084173123,501
1506084173131,500
1506084173139,497
1506084173147,495
1506084173156,493
1506084173165,490
1506084173173,490
1506084173181,487
1506084173189,486
1506084173197,487
1506084173205,485
1506084173213,485
1506084173221,483
1506084173230,483
1506084173238,484
1506084173246,484
1506084173251,486
1506084173259,487
1506084173267,488
1506084173274,490
1506084173283,490
1506084173291,492
1506084173299,492
1506084173307,494
1506084173315,496
1506084173324,495
1506084173332,496
1506084173340,496
1506084173348,497
1506084173356,497
1506084173364,498
1506084173372,498
1506084173380,498
1506084173389,497
1506084173397,498
1506084173406,497
1506084173410,497
1506084173418,496
1506084173426,495
1506084173434,495
1506084173443,493
1506084173452,493
1506084173459,491
1506084173467,492
1506084173475,493
1506084173483,493
1506084173491,498
1506084173499,501
1506084173508,508
1506084173517,517
1506084173525,526
1506084173533,538
1506084173541,551
1506084173549,564
1506084173557,578
1506084173565,589
1506084173570,603
1506084173578,610
1506084173586,617
1506084173594,622
1506084173603,621
1506084173610,619
1506084173619,616
1506084173627,609
1506084173635,600
1506084173643,589
1506084173651,577
1506084173659,564
1506084173668,553
1506084173676,541
1506084173684,528
1506084173692,519
1506084173700,509
1506084173708,500
1506084173717,496
1506084173725,491
1506084173729,488
1506084173737,486
1506084173745,485
1506084173753,484
1506084173762,482
1506084173770,483
1506084173778,483
1506084173787,484
1506084173795,485
1506084173804,484
1506084173812,486
1506084173819,488
1506084173827,491
1506084173835,492
1506084173844,492
1506084173852,494
1506084173861,495
1506084173869,497
1506084173877,499
1506084173885,500
1506084173889,502
1506084173897,503
1506084173905,504
1506084173914,506
1506084173922,506
1506084173930,506
1506084173938,505
1506084173946,504
1506084173954,502
1506084173962,500
1506084173970,498
1506084173978,496
1506084173987,494
1506084173995,493
1506084174003,489
1506084174012,489
1506084174021,486
1506084174029,485
1506084174037,484
1506084174045,482
1506084174049,481
1506084174057,480
1506084174065,480
1506084174073,482
1506084174081,481
1506084174090,483
1506084174098,484
1506084174106,486
1506084174114,488
1506084174122,489
1506084174131,492
1506084174139,493
1506084174147,494
1506084174155,496
1506084174165,495
1506084174173,497
1506084174180,496
1506084174188,496
1506084174196,498
1506084174204,496
1506084174208,498
1506084174217,498
1506084174225,497
1506084174233,498
1506084174241,497
1506084174249,498
1506084174258,497
1506084174266,496
1506084174274,496
1506084174282,495
1506084174290,495
1506084174298,494
1506084174307,493
1506084174315,494
1506084174324,492
1506084174331,493
1506084174341,493
1506084174348,493
1506084174356,494
1506084174364,496
1506084174372,500
1506084174376,505
1506084174384,512
1506084174392,522
1506084174400,531
1506084174408,546
1506084174417,559
1506084174425,573
1506084174434,587
1506084174442,599
1506084174450,611
1506084174458,618
1506084174466,624
1506084174474,626
1506084174483,624
1506084174491,623
1506084174499,617
1506084174508,608
1506084174515,599
1506084174523,586
1506084174531,575
1506084174536,563
1506084174544,551
1506084174552,539
1506084174560,527
1506084174569,518
1506084174577,509
1506084174585,502
1506084174594,497
1506084174602,491
1506084174610,488
1506084174618,486
1506084174626,484
1506084174634,485
1506084174643,483
1506084174651,483
1506084174659,483
1506084174667,484
1506084174675,485
1506084174683,486
1506084174691,488
1506084174696,491
1506084174704,492
1506084174712,496
1506084174720,498
1506084174728,501
1506084174737,503
1506084174745,505
1506084174753,508
1506084174761,508
1506084174769,511
1506084174777,511
1506084174786,512
1506084174794,513
1506084174802,512
1506084174810,511
1506084174819,510
1506084174827,508
1506084174835,508
1506084174843,505
1506084174851,504
1506084174856,501
1506084174864,499
1506084174872,497
1506084174880,494
1506084174888,493
1506084174896,491
1506084174904,489
1506084174912,490
1506084174921,487
1506084174929,487
1506084174938,487
1506084174946,487
1506084174954,489
1506084174962,488
1506084174970,490
1506084174978,489
1506084174986,490
1506084174994,492
1506084175002,492
1506084175011,492
1506084175015,494
1506084175023,494
1506084175032,496
1506084175039,495
1506084175048,497
1506084175057,497
1506084175065,498
1506084175073,499
1506084175081,496
1506084175089,499
1506084175097,499
1506084175105,498
1506084175113,499
1506084175121,497
1506084175130,498
1506084175138,498
1506084175146,496
1506084175154,496
1506084175163,495
1506084175171,496
1506084175175,495
1506084175183,493
1506084175191,499
1506084175199,499
1506084175208,497
1506084175216,496
1506084175224,493
1506084175232,494
1506084175240,496
1506084175249,494
1506084175257,497
1506084175265,500
1506084175273,505
1506084175281,506
1506084175290,514
1506084175298,524
1506084175306,537
1506084175314,550
1506084175322,562
1506084175330,577
1506084175335,589
1506084175343,599
1506084175351,609
1506084175359,615
1506084175367,618
1506084175376,619
1506084175384,616
1506084175392,611
1506084175400,603
1506084175408,595
1506084175417,584
1506084175425,572
1506084175433,560
1506084175441,545
1506084175449,534
1506084175457,523
1506084175465,512
1506084175473,503
1506084175482,495
1506084175490,489
1506084175494,484
1506084175502,479
1506084175511,477
1506084175519,475
1506084175527,474
1506084175536,474
1506084175544,473
1506084175552,474
1506084175560,474
1506084175569,477
1506084175577,479
1506084175585,480
1506084175593,482
1506084175601,484
1506084175609,488
1506084175617,491
1506084175626,494
1506084175633,498
1506084175642,500
1506084175650,505
1506084175654,508
1506084175662,505
1506084175670,506
1506084175678,504
1506084175687,505
1506084175695,504
1506084175703,502
1506084175711,502
1506084175719,500
1506084175728,498
1506084175736,496
1506084175744,493
1506084175752,491
1506084175760,488
1506084175769,486
1506084175777,485
1506084175785,482
1506084175793,482
1506084175801,480
1506084175809,479
1506084175813,478
1506084175822,477
1506084175830,478
1506084175838,477
1506084175846,478
1506084175854,479
1506084175862,479
1506084175871,482
1506084175879,483
1506084175887,484
1506084175895,486
1506084175904,487
1506084175912,489
1506084175920,489
1506084175928,491
1506084175936,491
1506084175944,491
1506084175953,493
1506084175961,492
1506084175969,493
1506084175977,494
1506084175981,493
1506084175990,493
1506084175998,493
1506084176006,493
1506084176014,492
1506084176023,491
1506084176031,492
1506084176040,490
1506084176048,489
1506084176056,488
1506084176064,486
1506084176072,485
1506084176080,483
1506084176089,483
1506084176097,482
1506084176105,482
1506084176113,483
1506084176122,485
1506084176129,490
1506084176137,495
1506084176141,502
1506084176150,513
1506084176159,522
1506084176166,535
1506084176174,549
1506084176182,562
1506084176190,575
1506084176198,586
1506084176207,595
1506084176215,603
1506084176224,607
1506084176232,611
1506084176240,608
1506084176248,606
1506084176256,600
1506084176265,591
1506084176273,583
1506084176281,571
1506084176289,559
1506084176297,548
1506084176301,534
1506084176310,524
1506084176317,512
1506084176326,504
1506084176334,496
1506084176342,489
1506084176350,485
1506084176359,480
1506084176367,478
1506084176375,475
1506084176383,473
1506084176391,474
1506084176399,472
1506084176407,473
1506084176415,474
1506084176424,474
1506084176432,477
1506084176440,479
1506084176448,482
1506084176456,485
1506084176461,488
1506084176469,491
1506084176477,493
1506084176485,496
1506084176493,498
1506084176502,500
1506084176510,503
1506084176519,506
1506084176526,507
1506084176534,508
1506084176542,506
1506084176551,508
1506084176559,507
1506084176567,505
1506084176575,504
1506084176584,501
1506084176591,500
1506084176599,497
1506084176608,495
1506084176616,493
1506084176620,491
1506084176628,490
1506084176636,488
1506084176645,487
1506084176653,486
1506084176661,484
1506084176669,485
1506084176677,484
1506084176686,483
1506084176694,484
1506084176702,483
1506084176710,485
1506084176718,485
1506084176727,486
1506084176735,487
1506084176743,488
1506084176752,490
1506084176760,490
1506084176768,490
1506084176776,492
1506084176780,492
1506084176788,495
1506084176796,495
1506084176804,496
1506084176814,497
1506084176822,496
1506084176830,498
1506084176838,497
1506084176846,498
1506084176854,498
1506084176862,497
1506084176870,499
1506084176879,497
1506084176887,497
1506084176895,497
1506084176903,495
1506084176911,495
1506084176919,494
1506084176927,493
1506084176935,493
1506084176941,491
1506084176949,492
1506084176957,492
1506084176965,493
1506084176973,496
1506084176981,499
1506084176989,506
1506084176997,513
1506084177005,523
1506084177014,534
1506084177023,546
1506084177031,560
1506084177038,572
1506084177046,586
1506084177055,597
1506084177063,606
1506084177071,614
1506084177079,618
1506084177088,619
1506084177096,619
1506084177100,614
1506084177108,609
1506084177116,600
1506084177124,590
1506084177133,581
1506084177140,567
1506084177149,556
1506084177157,544
1506084177165,533
1506084177174,524
1506084177182,513
1506084177190,505
1506084177198,497
1506084177206,492
1506084177214,488
1506084177224,483
1506084177231,484
1506084177241,483
1506084177248,485
1506084177256,484
1506084177260,483
1506084177268,484
1506084177276,485
1506084177284,485
1506084177292,486
1506084177300,487
1506084177309,490
1506084177317,491
1506084177326,494
1506084177334,497
1506084177342,498
1506084177350,501
1506084177358,503
1506084177366,504
1506084177374,507
1506084177383,507
1506084177390,509
1506084177399,508
1506084177407,509
1506084177415,509
1506084177419,506
1506084177427,506
1506084177435,504
1506084177444,501
1506084177452,501
1506084177460,497
1506084177468,496
1506084177476,494
1506084177484,491
1506084177493,489
1506084177501,487
1506084177509,486
1506084177517,485
1506084177526,484
1506084177534,484
1506084177542,482
1506084177550,485
1506084177559,485
1506084177568,484
1506084177575,486
1506084177580,486
1506084177587,488
1506084177595,488
1506084177604,490
1506084177612,492
1506084177620,493
1506084177628,495
1506084177636,495
1506084177645,496
1506084177653,497
1506084177661,497
1506084177669,499
1506084177677,499
1506084177685,499
1506084177694,500
1506084177702,499
1506084177710,500
1506084177718,499
1506084177726,498
1506084177734,499
1506084177742,497
1506084177747,498
1506084177755,497
1506084177764,496
1506084177772,497
1506084177780,495
1506084177788,495
1506084177796,495
1506084177804,495
1506084177812,495
1506084177821,494
1506084177828,494
1506084177838,494
1506084177846,494
1506084177854,498
1506084177862,502
1506084177870,509
1506084177878,518
1506084177886,527
1506084177894,539
1506084177902,551
1506084177907,566
1506084177915,580
1506084177923,592
1506084177931,604
1506084177939,613
1506084177947,621
1506084177956,624
1506084177964,624
1506084177972,623
1506084177980,618
1506084177989,612
1506084177997,603
1506084178006,594
1506084178013,582
1506084178022,569
1506084178030,558
1506084178038,546
1506084178046,535
1506084178054,526
1506084178062,516
1506084178066,509
1506084178074,502
1506084178083,496
1506084178091,493
1506084178099,488
1506084178107,487
1506084178115,484
1506084178124,483
1506084178132,484
1506084178140,482
1506084178148,483
1506084178157,484
1506084178165,484
1506084178173,487
1506084178181,488
1506084178190,489
1506084178198,492
1506084178206,493
1506084178214,496
1506084178222,497
1506084178226,500
1506084178234,502
1506084178242,502
1506084178250,506
1506084178258,506
1506084178268,508
1506084178276,508
1506084178284,508
1506084178292,508
1506084178300,506
1506084178308,506
1506084178316,504
1506084178325,501
1506084178333,501
1506084178341,497
1506084178349,496
1506084178357,494
1506084178366,491
1506084178374,490
1506084178381,487
1506084178386,487
1506084178394,486
1506084178402,485
1506084178410,486
1506084178418,484
1506084178427,485
1506084178435,485
1506084178443,484
1506084178452,486
1506084178460,486
1506084178468,488
1506084178476,489
1506084178484,490
1506084178492,491
1506084178500,491
1506084178509,493
1506084178517,494
1506084178525,494
1506084178534,496
1506084178542,495
1506084178546,497
1506084178554,497
1506084178562,497
1506084178570,498
1506084178578,497
1506084178587,498
1506084178595,497
1506084178603,497
1506084178611,498
1506084178619,496
1506084178628,497
1506084178636,496
1506084178644,495
1506084178652,496
1506084178660,495
1506084178668,495
1506084178676,495
1506084178685,493
1506084178693,494
1506084178701,493
1506084178705,493
1506084178713,492
1506084178721,492
1506084178730,493
1506084178738,492
1506084178746,494
1506084178754,496
1506084178762,499
1506084178770,505
1506084178779,512
1506084178787,523
1506084178795,534
1506084178804,547
1506084178811,561
1506084178820,574
1506084178828,588
1506084178836,600
1506084178844,609
1506084178852,618
1506084178860,623
1506084178865,625
1506084178873,626
1506084178881,621
1506084178889,615
1506084178898,609
1506084178906,599
1506084178914,585
1506084178922,572
1506084178930,560
1506084178938,546
1506084178947,534
1506084178955,524
1506084178963,512
1506084178971,506
1506084178979,497
1506084178987,492
1506084178996,488
1506084179004,483
1506084179012,483
1506084179020,482
1506084179025,481
1506084179033,482
1506084179041,482
1506084179049,484
1506084179057,484
1506084179066,486
1506084179073,488
1506084179082,487
1506084179090,491
1506084179098,491
1506084179106,493
1506084179114,494
1506084179123,496
1506084179131,499
1506084179139,500
1506084179147,502
1506084179155,504
1506084179164,505
1506084179172,508
1506084179180,506
1506084179184,508
1506084179192,509
1506084179200,506
1506084179209,507
1506084179217,503
1506084179225,502
1506084179233,501
1506084179241,498
1506084179249,496
1506084179258,492
1506084179266,491
1506084179274,488
1506084179282,486
1506084179290,485
1506084179299,482
1506084179308,482
1506084179316,481
1506084179324,479
1506084179332,480
1506084179340,479
1506084179345,480
1506084179353,480
1506084179361,480
1506084179369,481
1506084179378,481
1506084179386,483
1506084179394,484
1506084179402,483
1506084179410,486
1506084179418,486
1506084179426,488
1506084179435,490
1506084179443,489
1506084179451,490
1506084179459,489
1506084179467,491
1506084179476,491
1506084179484,490
1506084179492,491
1506084179500,490
1506084179508,490
1506084179512,491
1506084179521,489
1506084179529,490
1506084179537,489
1506084179545,488
1506084179553,488
1506084179561,488
1506084179570,488
1506084179578,486
1506084179586,486
1506084179594,486
1506084179603,484
1506084179611,484
1506084179619,482
1506084179627,481
1506084179635,481
1506084179643,480
1506084179652,482
1506084179660,482
1506084179668,486
1506084179672,490
1506084179680,495
1506084179688,504
1506084179697,512
1506084179705,523
1506084179713,536
1506084179721,548
1506084179729,561
1506084179737,573
1506084179746,583
1506084179754,593
1506084179763,600
1506084179770,605
1506084179778,606
1506084179786,606
1506084179795,603
1506084179804,595
1506084179812,589
1506084179820,578
1506084179828,566
1506084179832,556
1506084179840,543
1506084179848,531
1506084179856,519
1506084179864,509
1506084179873,500
1506084179881,491
1506084179890,487
1506084179898,480
1506084179906,477
1506084179914,475
1506084179922,472
1506084179930,472
1506084179938,471
1506084179946,471
1506084179955,472
1506084179963,473
1506084179971,475
1506084179979,475
1506084179987,477
1506084179991,479
1506084180000,480
1506084180008,484
1506084180016,486
1506084180024,489
1506084180032,492
1506084180040,494
1506084180049,496
1506084180057,498
1506084180065,500
1506084180073,501
1506084180081,501
1506084180091,503
1506084180099,502
1506084180107,501
1506084180114,502
1506084180122,499
1506084180131,499
1506084180138,497
1506084180146,495
1506084180151,493
1506084180159,490
1506084180167,487
1506084180175,483
1506084180184,482
1506084180192,480
1506084180200,477
1506084180208,478
1506084180216,476
1506084180224,476
1506084180232,477
1506084180240,477
1506084180249,478
1506084180257,479
1506084180266,481
1506084180274,482
1506084180282,483
1506084180290,486
1506084180298,487
1506084180307,488
1506084180310,491
1506084180318,491
1506084180327,493
1506084180335,495
1506084180343,495
1506084180351,496
1506084180360,496
1506084180368,497
1506084180376,496
1506084180384,496
1506084180392,497
1506084180400,496
1506084180409,497
1506084180418,496
1506084180426,495
1506084180434,495
1506084180442,493
1506084180450,493
1506084180460,491
1506084180467,491
1506084180471,491
1506084180479,489
1506084180487,489
1506084180496,488
1506084180504,487
1506084180512,490
1506084180520,491
1506084180528,496
1506084180537,501
1506084180545,508
1506084180553,518
1506084180561,528
1506084180569,542
1506084180578,553
1506084180586,567
1506084180594,580
1506084180602,589
1506084180610,599
1506084180618,605
1506084180626,609
1506084180631,613
1506084180639,611
1506084180647,609
1506084180655,603
1506084180663,595
1506084180671,587
1506084180680,579
1506084180688,571
1506084180696,558
1506084180704,544
1506084180712,531
1506084180720,519
1506084180729,509
1506084180737,499
1506084180745,492
1506084180753,487
1506084180761,482
1506084180770,479
1506084180778,476
1506084180786,475
1506084180790,475
1506084180798,473
1506084180807,475
1506084180815,476
1506084180823,477
1506084180831,480
1506084180839,480
1506084180848,483
1506084180856,486
1506084180864,488
1506084180872,491
1506084180880,493
1506084180888,497
1506084180896,499
1506084180905,501
1506084180913,503
1506084180921,504
1506084180929,506
1506084180937,507
1506084180946,506
1506084180950,508
1506084180958,506
1506084180966,506
1506084180974,505
1506084180983,502
1506084180990,502
1506084180999,498
1506084181007,498
1506084181015,495
1506084181023,492
1506084181031,492
1506084181039,489
1506084181048,488
1506084181056,485
1506084181064,484
1506084181073,483
1506084181081,481
1506084181090,482
1506084181098,482
1506084181106,481
1506084181110,483
1506084181118,482
1506084181126,483
1506084181135,483
1506084181143,484
1506084181150,486
1506084181159,486
1506084181167,488
1506084181175,489
1506084181183,490
1506084181191,493
1506084181199,492
1506084181208,494
1506084181216,494
1506084181224,494
1506084181232,495
1506084181241,495
1506084181249,495
1506084181257,495
1506084181265,496
1506084181269,496
1506084181278,495
1506084181286,496
1506084181294,495
1506084181302,494
1506084181310,495
1506084181319,493
1506084181327,493
1506084181335,493
1506084181343,491
1506084181351,491
1506084181359,489
1506084181368,490
1506084181376,492
1506084181384,495
1506084181392,497
1506084181400,495
1506084181408,499
1506084181417,505
1506084181424,513
1506084181428,524
1506084181438,534
1506084181446,549
1506084181454,561
1506084181462,574
1506084181470,588
1506084181478,598
1506084181486,613
1506084181494,617
1506084181503,618
1506084181511,619
1506084181520,616
1506084181528,611
1506084181536,605
1506084181545,596
1506084181552,587
1506084181561,575
1506084181569,565
1506084181577,552
1506084181585,541
1506084181593,531
1506084181597,519
1506084181605,512
1506084181613,505
1506084181621,497
1506084181629,494
1506084181638,490
1506084181646,487
1506084181654,485
1506084181662,484
1506084181670,485
1506084181678,482
1506084181687,484
1506084181695,483
1506084181703,483
1506084181712,485
1506084181720,484
1506084181728,486
1506084181737,488
1506084181745,488
1506084181753,491
1506084181757,491
1506084181765,494
1506084181773,495
1506084181782,495
1506084181790,498
1506084181798,498
1506084181806,500
1506084181814,502
1506084181822,502
1506084181830,505
1506084181838,503
1506084181846,504
1506084181856,503
1506084181864,502
1506084181872,502
1506084181880,500
1506084181888,499
1506084181896,497
1506084181905,494
1506084181912,494
1506084181917,491
1506084181925,490
1506084181933,490
1506084181942,488
1506084181949,488
1506084181958,486
1506084181966,486
1506084181974,486
1506084181982,486
1506084181990,487
1506084181998,486
1506084182007,489
1506084182014,490
1506084182023,489
1506084182031,490
1506084182040,490
1506084182048,492
1506084182056,493
1506084182064,494
1506084182072,497
1506084182077,495
1506084182084,497
1506084182092,497
1506084182101,497
1506084182110,499
1506084182117,498
1506084182125,499
1506084182133,500
1506084182142,498
1506084182150,499
1506084182158,497
1506084182166,497
1506084182175,497
1506084182183,496
1506084182191,497
1506084182199,496
1506084182207,497
1506084182216,496
1506084182224,495
1506084182232,496
1506084182236,494
1506084182244,496
1506084182252,494
1506084182261,492
1506084182269,491
1506084182277,489
1506084182285,490
1506084182293,491
1506084182301,492
1506084182309,497
1506084182318,500
1506084182326,509
1506084182334,518
1506084182342,528
1506084182350,541
1506084182358,553
1506084182367,567
1506084182375,580
1506084182383,591
1506084182391,604
1506084182395,611
1506084182403,619
1506084182411,622
1506084182421,622
1506084182429,621
1506084182438,616
1506084182445,608
1506084182454,600
1506084182462,589
1506084182471,578
1506084182478,565
1506084182486,554
1506084182494,542
1506084182503,530
1506084182510,521
1506084182519,511
1506084182527,504
1506084182535,498
1506084182543,492
1506084182551,489
1506084182555,485
1506084182564,483
1506084182571,482
1506084182580,481
1506084182588,483
1506084182596,482
1506084182604,482
1506084182612,483
1506084182621,483
1506084182630,486
1506084182638,486
1506084182646,488
1506084182655,491
1506084182662,492
1506084182671,495
1506084182679,496
1506084182687,500
1506084182695,502
1506084182703,503
1506084182711,506
1506084182715,507
1506084182724,508
1506084182732,509
1506084182740,507
1506084182748,508
1506084182756,505
1506084182764,505
1506084182772,504
1506084182780,500
1506084182789,499
1506084182797,496
1506084182806,494
1506084182814,492
1506084182822,489
1506084182829,490
1506084182839,487
1506084182847,486
1506084182855,486
1506084182863,484
1506084182871,485
1506084182875,483
1506084182883,483
1506084182891,484
1506084182900,482
1506084182908,484
1506084182916,482
1506084182924,484
1506084182932,484
1506084182941,483
1506084182948,486
1506084182957,486
1506084182965,487
1506084182974,489
1506084182982,488
1506084182990,491
1506084182998,491
1506084183006,492
1506084183014,493
1506084183022,492
1506084183030,493
1506084183034,492
1506084183043,493
1506084183051,492
1506084183059,489
1506084183067,490
1506084183075,488
1506084183084,487
1506084183092,487
1506084183100,485
1506084183108,485
1506084183117,484
1506084183125,484
1506084183133,485
1506084183141,483
1506084183149,485
1506084183157,483
1506084183167,483
1506084183174,484
1506084183182,482
1506084183191,483
1506084183199,482
1506084183202,481
1506084183211,481
1506084183219,481
1506084183227,484
1506084183235,488
1506084183244,493
1506084183251,501
1506084183260,509
1506084183268,522
1506084183276,534
1506084183284,547
1506084183292,561
1506084183301,572
1506084183309,585
1506084183317,594
1506084183325,601
1506084183335,607
1506084183342,608
1506084183350,609
1506084183357,604
1506084183362,598
1506084183370,592
1506084183378,581
1506084183386,572
1506084183394,560
1506084183402,548
1506084183412,536
1506084183420,525
1506084183427,514
1506084183436,504
1506084183444,496
1506084183452,490
1506084183460,483
1506084183469,480
1506084183477,476
1506084183486,475
1506084183494,474
1506084183502,472
1506084183510,472
1506084183518,472
1506084183522,472
1506084183531,474
1506084183539,474
1506084183547,478
1506084183555,479
1506084183563,482
1506084183571,485
1506084183579,486
1506084183588,490
1506084183596,493
1506084183604,495
1506084183612,498
1506084183620,499
1506084183628,502
1506084183636,503
1506084183645,505
1506084183653,506
1506084183661,504
1506084183669,506
1506084183677,504
1506084183681,502
1506084183690,501
1506084183698,498
1506084183706,496
1506084183714,493
1506084183722,492
1506084183731,489
1506084183739,486
1506084183748,484
1506084183756,482
1506084183765,479
1506084183772,480
1506084183780,477
1506084183788,478
1506084183797,477
1506084183804,478
1506084183813,479
1506084183821,479
1506084183829,481
1506084183837,481
1506084183841,483
1506084183849,485
1506084183858,484
1506084183866,488
1506084183875,488
1506084183883,488
1506084183891,490
1506084183899,490
1506084183907,492
1506084183915,492
1506084183924,492
1506084183932,493
1506084183940,492
1506084183948,493
1506084183956,492
1506084183964,491
1506084183972,492
1506084183980,491
1506084183988,492
1506084183997,491
1506084184001,490
1506084184010,490
1506084184018,489
1506084184026,489
1506084184034,488
1506084184042,487
1506084184050,487
1506084184059,485
1506084184067,486
1506084184075,486
1506084184083,486
1506084184091,490
1506084184100,492
1506084184108,498
1506084184116,503
1506084184124,510
1506084184132,521
1506084184140,530
1506084184148,543
1506084184156,554
1506084184161,567
1506084184169,579
1506084184177,588
1506084184185,597
1506084184193,604
1506084184202,608
1506084184211,611
1506084184219,608
1506084184227,606
1506084184235,599
1506084184243,591
1506084184251,582
1506084184259,570
1506084184268,562
1506084184276,550
1506084184284,539
1506084184292,530
1506084184300,519
1506084184308,511
1506084184316,504
1506084184321,499
1506084184329,495
1506084184337,490
1506084184345,489
1506084184353,486
1506084184361,484
1506084184370,484
1506084184378,481
1506084184386,481
1506084184394,481
1506084184402,482
1506084184410,483
1506084184418,483
1506084184427,485
1506084184435,486
1506084184444,488
1506084184452,491
1506084184460,492
1506084184468,496
1506084184476,498
1506084184481,500
1506084184489,504
1506084184497,505
1506084184505,506
1506084184513,507
1506084184521,507
1506084184530,508
1506084184538,507
1506084184546,507
1506084184554,506
1506084184562,504
1506084184570,505
1506084184579,501
1506084184587,500
1506084184595,498
1506084184603,495
1506084184611,495
1506084184619,492
1506084184627,491
1506084184635,489
1506084184640,488
1506084184648,488
1506084184656,487
1506084184665,488
1506084184672,488
1506084184681,488
1506084184689,490
1506084184697,489
1506084184705,490
1506084184714,491
1506084184722,491
1506084184730,492
1506084184739,491
1506084184747,493
1506084184755,493
1506084184763,493
1506084184771,495
1506084184779,493
1506084184787,496
1506084184795,496
1506084184800,496
1506084184808,497
1506084184816,497
1506084184825,498
1506084184833,498
1506084184842,498
1506084184850,500
1506084184858,498
1506084184866,500
1506084184874,499
1506084184882,498
1506084184890,499
1506084184898,497
1506084184906,497
1506084184915,495
1506084184923,493
1506084184931,493
1506084184939,492
1506084184947,492
1506084184956,490
1506084184960,489
1506084184968,491
1506084184976,490
1506084184985,492
1506084184993,496
1506084185001,500
1506084185009,509
1506084185017,516
1506084185025,529
1506084185033,540
1506084185042,553
1506084185050,567
1506084185058,579
1506084185066,591
1506084185074,601
1506084185083,609
1506084185091,616
1506084185099,618
1506084185107,618
1506084185115,615
1506084185119,608
1506084185127,602
1506084185136,592
1506084185144,582
1506084185152,571
1506084185160,559
1506084185169,549
1506084185177,537
1506084185185,528
1506084185193,519
1506084185201,510
1506084185209,505
1506084185218,498
1506084185226,494
1506084185234,491
1506084185242,488
1506084185250,488
1506084185259,485
1506084185267,485
1506084185275,485
1506084185283,484
1506084185287,486
1506084185295,485
1506084185304,485
1506084185312,486
1506084185320,487
1506084185329,490
1506084185336,490
1506084185345,492
1506084185353,494
1506084185361,495
1506084185369,499
1506084185377,498
1506084185385,501
1506084185393,502
1506084185401,502
1506084185410,503
1506084185418,503
1506084185426,503
1506084185434,502
1506084185442,501
1506084185446,501
1506084185455,498
1506084185463,497
1506084185471,496
1506084185479,494
1506084185488,494
1506084185496,490
1506084185504,489
1506084185512,488
1506084185521,486
1506084185528,486
1506084185537,484
1506084185545,484
1506084185553,484
1506084185561,483
1506084185569,485
1506084185578,484
1506084185586,486
1506084185594,488
1506084185603,487
1506084185607,489
1506084185615,488
1506084185623,490
1506084185631,491
1506084185640,492
1506084185648,494
1506084185656,494
1506084185664,496
1506084185672,497
1506084185680,497
1506084185689,500
1506084185697,499
1506084185705,500
1506084185713,500
1506084185721,499
1506084185729,500
1506084185738,499
1506084185746,499
1506084185754,498
1506084185761,497
1506084185766,499
1506084185775,497
1506084185783,496
1506084185791,497
1506084185800,494
1506084185808,495
1506084185816,493
1506084185824,493
1506084185832,492
1506084185840,490
1506084185849,490
1506084185857,488
1506084185865,488
1506084185873,489
1506084185882,488
1506084185890,493
1506084185898,496
1506084185906,503
1506084185914,512
1506084185922,519
1506084185926,531
1506084185935,542
1506084185943,555
1506084185950,569
1506084185959,580
1506084185967,593
1506084185975,602
1506084185984,611
1506084185992,618
1506084186000,619
1506084186009,620
1506084186017,617
1506084186025,613
1506084186033,606
1506084186041,596
1506084186049,587
1506084186057,576
1506084186066,564
1506084186074,553
1506084186082,541
1506084186086,532
1506084186094,525
1506084186102,518
1506084186110,510
1506084186119,501
1506084186127,498
1506084186135,494
1506084186144,492
1506084186152,491
1506084186160,488
1506084186168,489
1506084186176,489
1506084186184,488
1506084186192,490
1506084186200,488
1506084186209,490
1506084186217,491
1506084186225,492
1506084186234,494
1506084186242,495
1506084186246,498
1506084186254,498
1506084186262,500
1506084186270,503
1506084186278,504
1506084186286,507
1506084186294,507
1506084186302,508
1506084186311,509
1506084186320,509
1506084186328,509
1506084186336,508
1506084186345,507
1506084186353,507
1506084186360,504
1506084186369,503
1506084186377,500
1506084186385,498
1506084186393,497
1506084186401,494
1506084186406,494
1506084186413,491
1506084186422,489
1506084186430,488
1506084186438,486
1506084186446,486
1506084186455,485
1506084186463,484
1506084186471,485
1506084186479,483
1506084186487,483
1506084186496,484
1506084186505,484
1506084186512,485
1506084186520,485
1506084186529,487
1506084186537,487
1506084186545,488
1506084186553,489
1506084186561,488
1506084186566,490
1506084186573,489
1506084186582,490
1506084186590,490
1506084186598,489
1506084186606,490
1506084186614,491
1506084186622,491
1506084186630,491
1506084186639,490
1506084186647,491
1506084186655,490
1506084186663,490
1506084186671,491
1506084186680,489
1506084186688,489
1506084186696,489
1506084186704,489
1506084186712,490
1506084186720,488
1506084186725,489
1506084186734,487
1506084186742,486
1506084186750,486
1506084186758,485
1506084186766,485
1506084186774,484
1506084186782,484
1506084186791,486
1506084186799,489
1506084186807,494
1506084186815,498
1506084186823,505
1506084186831,514
1506084186839,523
1506084186848,536
1506084186856,548
1506084186864,560
1506084186872,572
1506084186880,582
1506084186888,592
1506084186892,599
1506084186901,602
1506084186909,605
1506084186918,603
1506084186926,601
1506084186934,595
1506084186942,587
1506084186950,579
1506084186959,567
1506084186967,557
1506084186975,545
1506084186983,533
1506084186991,524
1506084186999,513
1506084187007,506
1506084187016,497
1506084187024,491
1506084187033,486
1506084187041,481
1506084187048,479
1506084187053,477
1506084187061,474
1506084187069,474
1506084187077,473
1506084187086,474
1506084187094,473
1506084187102,474
1506084187110,476
1506084187118,476
1506084187126,479
1506084187134,480
1506084187143,482
1506084187151,485
1506084187159,487
1506084187167,490
1506084187175,491
1506084187184,493
1506084187192,495
1506084187200,496
1506084187208,499
1506084187212,500
1506084187220,500
1506084187228,502
1506084187237,500
1506084187245,503
1506084187253,500
1506084187261,499
1506084187269,498
1506084187278,496
1506084187287,495
1506084187295,492
1506084187303,490
1506084187311,490
1506084187319,486
1506084187327,487
1506084187335,485
1506084187344,482
1506084187352,483
1506084187360,480
1506084187368,481
1506084187372,480
1506084187380,480
1506084187388,481
1506084187397,481
1506084187405,482
1506084187413,482
1506084187421,483
1506084187429,486
1506084187437,486
1506084187446,488
1506084187454,489
1506084187462,495
1506084187470,499
1506084187478,499
1506084187487,499
1506084187495,499
1506084187503,499
1506084187511,502
1506084187519,500
1506084187527,502
1506084187532,499
1506084187540,495
1506084187548,493
1506084187556,490
1506084187565,489
1506084187573,487
1506084187581,486
1506084187589,485
1506084187597,484
1506084187605,486
1506084187613,487
1506084187621,486
1506084187630,487
1506084187638,486
1506084187646,487
1506084187654,490
1506084187663,495
1506084187671,501
1506084187679,507
1506084187687,518
1506084187691,528
1506084187699,539
1506084187707,552
1506084187715,565
1506084187724,577
1506084187732,587
1506084187740,595
1506084187748,602
1506084187756,604
1506084187765,606
1506084187773,606
1506084187781,602
1506084187789,598
1506084187798,589
1506084187806,581
1506084187814,571
1506084187822,559
1506084187830,550
1506084187839,538
1506084187847,528
1506084187852,519
1506084187860,510
1506084187868,503
1506084187876,497
1506084187885,493
1506084187892,489
1506084187901,486
1506084187909,484
1506084187917,481
1506084187925,480
1506084187933,480
1506084187941,478
1506084187949,480
1506084187958,479
1506084187966,480
1506084187974,482
1506084187982,483
1506084187991,487
1506084187999,488
1506084188007,490
1506084188011,493
1506084188020,495
1506084188028,498
1506084188036,499
1506084188044,502
1506084188052,505
1506084188060,506
1506084188068,508
1506084188076,508
1506084188085,509
1506084188093,509
1506084188101,507
1506084188109,507
1506084188117,504
1506084188125,503
1506084188134,501
1506084188142,497
1506084188150,496
1506084188158,493
1506084188166,492
1506084188170,491
1506084188179,488
1506084188188,487
1506084188196,485
1506084188204,485
1506084188213,484
1506084188220,483
1506084188228,484
1506084188238,484
1506084188245,486
1506084188253,487
1506084188261,486
1506084188269,488
1506084188278,489
1506084188286,490
1506084188294,491
1506084188302,492
1506084188310,494
1506084188318,494
1506084188326,497
1506084188331,497
1506084188339,496
1506084188347,498
1506084188355,498
1506084188363,498
1506084188371,499
1506084188379,498
1506084188388,498
1506084188396,497
1506084188404,498
1506084188412,496
1506084188420,496
1506084188429,496
1506084188437,494
1506084188445,494
1506084188453,493
1506084188461,491
1506084188469,492
1506084188478,491
1506084188486,490
1506084188490,490
1506084188498,490
1506084188506,493
1506084188514,494
1506084188523,499
1506084188532,506
1506084188540,512
1506084188548,523
1506084188556,533
1506084188565,547
1506084188572,561
1506084188580,572
1506084188589,588
1506084188597,597
1506084188605,607
1506084188613,616
1506084188621,619
1506084188629,622
1506084188637,619
1506084188645,616
1506084188653,611
1506084188658,602
1506084188666,592
1506084188674,581
1506084188682,569
1506084188690,556
1506084188699,545
1506084188707,534
1506084188715,523
1506084188723,515
1506084188732,507
1506084188740,498
1506084188749,495
1506084188757,490
1506084188766,488
1506084188774,486
1506084188782,485
1506084188789,485
1506084188798,484
1506084188806,485
1506084188813,486
1506084188818,486
1506084188826,488
1506084188834,488
1506084188843,489
1506084188851,492
1506084188859,492
1506084188867,495
1506084188875,496
1506084188884,499
1506084188892,503
1506084188900,507
1506084188908,507
1506084188916,505
1506084188925,506
1506084188933,506
1506084188941,505
1506084188949,506
1506084188957,505
1506084188966,506
1506084188973,506
1506084188978,503
1506084188986,502
1506084188994,500
1506084189002,500
1506084189010,498
1506084189019,493
1506084189027,493
1506084189035,490
1506084189043,488
1506084189051,487
1506084189059,485
1506084189068,486
1506084189076,485
1506084189084,484
1506084189092,485
1506084189101,485
1506084189110,486
1506084189117,487
1506084189125,487
1506084189133,489
1506084189137,489
1506084189146,490
1506084189154,492
1506084189162,493
1506084189170,500
1506084189178,500
1506084189187,503
1506084189195,503
1506084189203,501
1506084189211,501
1506084189219,503
1506084189227,504
1506084189236,500
1506084189244,497
1506084189252,498
1506084189260,496
1506084189268,496
1506084189277,495
1506084189285,495
1506084189293,496
1506084189297,494
1506084189305,494
1506084189313,493
1506084189321,492
1506084189329,493
1506084189337,492
1506084189346,492
1506084189354,491
1506084189362,490
1506084189370,490
1506084189378,490
1506084189387,491
1506084189395,491
1506084189403,493
1506084189411,496
1506084189419,500
1506084189427,508
1506084189436,515
1506084189444,526
1506084189452,538
1506084189456,549
1506084189465,564
1506084189472,578
1506084189481,590
1506084189489,602
1506084189497,612
1506084189505,620
1506084189513,623
1506084189522,625
1506084189530,624
1506084189538,618
1506084189546,613
1506084189554,603
1506084189563,593
1506084189571,582
1506084189579,569
1506084189588,557
1506084189596,545
1506084189605,533
1506084189613,522
1506084189617,512
1506084189625,506
1506084189633,498
1506084189641,492
1506084189650,490
1506084189658,486
1506084189666,484
1506084189674,483
1506084189682,482
1506084189691,484
1506084189699,483
1506084189707,485
1506084189715,486
1506084189723,487
1506084189731,488
1506084189740,488
1506084189748,491
1506084189756,491
1506084189764,492
1506084189772,494
1506084189776,495
1506084189785,497
1506084189793,498
1506084189801,500
1506084189809,502
1506084189817,502
1506084189826,504
1506084189834,505
1506084189842,506
1506084189850,507
1506084189858,506
1506084189866,506
1506084189875,505
1506084189883,504
1506084189891,502
1506084189899,500
1506084189908,498
1506084189916,497
1506084189924,494
1506084189932,494
1506084189936,491
1506084189944,490
1506084189953,489
1506084189960,486
1506084189969,486
1506084189977,484
1506084189985,484
1506084189993,484
1506084190001,484
1506084190010,484
1506084190018,483
1506084190026,485
1506084190034,486
1506084190042,487
1506084190051,493
1506084190059,493
1506084190067,494
1506084190075,497
1506084190084,494
1506084190091,494
1506084190095,492
1506084190104,492
1506084190112,491
1506084190120,491
1506084190128,493
1506084190136,491
1506084190144,491
1506084190152,491
1506084190161,489
1506084190170,490
1506084190178,490
1506084190186,490
1506084190194,490
1506084190202,488
1506084190210,490
1506084190219,488
1506084190227,489
1506084190235,488
1506084190243,487
1506084190251,487
1506084190259,486
1506084190264,485
1506084190272,484
1506084190280,483
1506084190288,485
1506084190296,484
1506084190304,485
1506084190312,488
1506084190321,492
1506084190329,499
1506084190337,506
1506084190345,517
1506084190353,529
1506084190362,539
1506084190370,553
1506084190378,564
1506084190386,578
1506084190394,589
1506084190403,598
1506084190411,606
1506084190419,609
1506084190423,612
1506084190432,610
1506084190440,606
1506084190448,600
1506084190456,590
1506084190465,581
1506084190473,570
1506084190481,557
1506084190489,546
1506084190497,532
1506084190506,521
1506084190514,510
1506084190522,501
1506084190530,494
1506084190538,486
1506084190546,481
1506084190554,477
1506084190562,474
1506084190571,473
1506084190579,471
1506084190583,472
1506084190591,473
1506084190599,473
1506084190607,476
1506084190616,476
1506084190624,478
1506084190632,480
1506084190640,481
1506084190648,484
1506084190657,484
1506084190665,488
1506084190673,489
1506084190681,491
1506084190689,495
1506084190698,495
1506084190706,497
1506084190714,499
1506084190722,500
1506084190730,502
1506084190739,502
1506084190743,503
1506084190751,503
1506084190759,501
1506084190767,501
1506084190775,500
1506084190783,499
1506084190792,497
1506084190801,494
1506084190809,494
1506084190816,491
1506084190825,489
1506084190833,487
1506084190841,485
1506084190849,483
1506084190857,481
1506084190866,480
1506084190874,480
1506084190882,478
1506084190890,479
1506084190898,478
1506084190902,479
1506084190910,480
1506084190919,479
1506084190927,481
1506084190936,481
1506084190945,483
1506084190952,484
1506084190960,485
1506084190968,488
1506084190977,487
1506084190985,489
1506084190993,489
1506084191001,489
1506084191009,491
1506084191017,490
1506084191025,492
1506084191033,493
1506084191041,495
1506084191050,494
1506084191058,490
1506084191062,491
1506084191070,493
1506084191079,492
1506084191086,488
1506084191095,486
1506084191104,482
1506084191113,481
1506084191120,477
1506084191128,478
1506084191136,477
1506084191145,477
1506084191153,478
1506084191161,478
1506084191169,481
1506084191177,483
1506084191185,489
1506084191193,496
1506084191201,503
1506084191210,513
1506084191218,523
1506084191222,535
1506084191230,548
1506084191238,560
1506084191246,572
1506084191254,582
1506084191263,592
1506084191272,600
1506084191280,602
1506084191287,607
1506084191296,605
1506084191304,602
1506084191312,597
1506084191320,588
1506084191328,580
1506084191337,569
1506084191345,558
1506084191353,547
1506084191361,535
1506084191369,526
1506084191377,515
1506084191381,507
1506084191390,500
1506084191398,492
1506084191407,488
1506084191415,483
1506084191423,479
1506084191431,478
1506084191439,475
1506084191447,475
1506084191455,474
1506084191464,475
1506084191472,476
1506084191480,476
1506084191488,480
1506084191497,481
1506084191505,484
1506084191513,488
1506084191521,489
1506084191529,492
1506084191537,495
1506084191541,498
1506084191550,501
1506084191558,502
1506084191566,505
1506084191574,506
1506084191583,506
1506084191591,508
1506084191599,507
1506084191607,507
1506084191615,506
1506084191623,506
1506084191632,505
1506084191640,502
1506084191648,501
1506084191656,498
1506084191664,496
1506084191672,494
1506084191680,491
1506084191688,490
1506084191697,488
1506084191702,486
1506084191710,486
1506084191718,483
1506084191726,484
1506084191734,484
1506084191742,485
1506084191751,485
1506084191759,485
1506084191767,486
1506084191775,486
1506084191783,487
1506084191792,489
1506084191800,489
1506084191809,492
1506084191816,492
1506084191825,493
1506084191832,495
1506084191841,494
1506084191849,496
1506084191857,496
1506084191861,497
1506084191869,498
1506084191877,497
1506084191886,499
1506084191894,498
1506084191902,497
1506084191910,498
1506084191918,497
1506084191926,497
1506084191935,496
1506084191943,496
1506084191951,495
1506084191959,493
1506084191967,493
1506084191975,491
1506084191984,491
1506084191992,491
1506084192000,488
1506084192009,490
1506084192017,490
1506084192024,490
1506084192029,494
1506084192037,496
1506084192045,502
1506084192053,509
1506084192061,519
1506084192070,530
1506084192078,541
1506084192086,555
1506084192094,568
1506084192102,579
1506084192110,594
1506084192119,603
1506084192127,611
1506084192135,616
1506084192143,619
1506084192151,619
1506084192160,615
1506084192168,611
1506084192176,602
1506084192184,592
1506084192188,583
1506084192196,570
1506084192205,560
1506084192213,548
1506084192221,536
1506084192229,526
1506084192237,515
1506084192245,509
1506084192254,500
1506084192262,494
1506084192270,490
1506084192278,486
1506084192286,486
1506084192295,484
1506084192303,483
1506084192311,484
1506084192319,482
1506084192328,484
1506084192335,485
1506084192345,486
1506084192349,488
1506084192357,489
1506084192365,491
1506084192373,493
1506084192381,495
1506084192389,497
1506084192398,498
1506084192406,501
1506084192414,502
1506084192422,503
1506084192430,506
1506084192438,505
1506084192446,507
1506084192454,508
1506084192463,508
1506084192471,510
1506084192479,509
1506084192487,510
1506084192495,508
1506084192504,506
1506084192508,506
1506084192517,503
1506084192525,501
1506084192533,498
1506084192541,495
1506084192550,494
1506084192558,491
1506084192566,490
1506084192574,488
1506084192582,486
1506084192590,486
1506084192598,484
1506084192607,485
1506084192615,485
1506084192623,486
1506084192631,487
1506084192639,487
1506084192647,488
1506084192655,488
1506084192664,489
1506084192668,491
1506084192676,490
1506084192684,492
1506084192692,493
1506084192700,493
1506084192709,495
1506084192717,494
1506084192725,496
1506084192733,498
1506084192741,497
1506084192749,498
1506084192758,498
1506084192766,499
1506084192774,499
1506084192783,498
1506084192791,499
1506084192799,497
1506084192807,498
1506084192815,496
1506084192823,495
1506084192827,496
1506084192836,494
1506084192844,494
1506084192852,494
1506084192860,492
1506084192869,492
1506084192877,490
1506084192885,491
1506084192893,490
1506084192901,489
1506084192910,492
1506084192918,499
1506084192926,504
1506084192934,510
1506084192942,515
1506084192950,525
1506084192958,538
1506084192967,550
1506084192975,565
1506084192983,576
1506084192987,588
1506084192996,597
1506084193004,609
1506084193012,621
1506084193020,626
1506084193029,629
1506084193037,628
1506084193045,625
1506084193053,620
1506084193061,608
1506084193070,596
1506084193078,583
1506084193086,571
1506084193094,559
1506084193102,545
1506084193110,535
1506084193118,526
1506084193127,518
1506084193135,509
1506084193142,501
1506084193147,496
1506084193155,492
1506084193163,490
1506084193171,489
1506084193179,487
1506084193188,487
1506084193196,485
1506084193204,486
1506084193212,488
1506084193220,487
1506084193229,489
1506084193237,488
1506084193246,489
1506084193254,490
1506084193262,490
1506084193270,492
1506084193278,493
1506084193287,495
1506084193295,497
1506084193303,497
1506084193307,501
1506084193315,502
1506084193323,506
1506084193332,508
1506084193340,509
1506084193348,507
1506084193356,505
1506084193365,504
1506084193373,503
1506084193381,501
1506084193389,501
1506084193397,498
1506084193405,498
1506084193413,495
1506084193421,493
1506084193429,493
1506084193438,490
1506084193446,489
1506084193454,488
1506084193462,486
1506084193467,486
1506084193474,485
1506084193482,486
1506084193491,486
1506084193499,486
1506084193507,487
1506084193515,486
1506084193524,487
1506084193532,489
1506084193540,489
1506084193548,491
1506084193556,493
1506084193565,494
1506084193574,495
1506084193581,496
1506084193590,498
1506084193598,498
1506084193606,499
1506084193614,501
1506084193622,500
1506084193626,502
1506084193634,501
1506084193643,500
1506084193651,500
1506084193659,500
1506084193667,500
1506084193675,499
1506084193684,499
1506084193691,499
1506084193699,498
1506084193708,499
1506084193716,496
1506084193724,497
1506084193732,497
1506084193740,495
1506084193749,495
1506084193758,495
1506084193766,494
1506084193774,494
1506084193782,493
1506084193790,494
1506084193795,492
1506084193803,493
1506084193810,495
1506084193819,495
1506084193827,501
1506084193835,506
1506084193843,514
1506084193851,524
1506084193859,534
1506084193868,548
1506084193876,561
1506084193884,575
1506084193892,589
1506084193901,600
1506084193909,612
1506084193917,620
1506084193925,626
1506084193934,629
1506084193942,628
1506084193950,626
1506084193954,619
1506084193962,610
1506084193970,601
1506084193979,588
1506084193986,577
1506084193994,565
1506084194003,552
1506084194011,540
1506084194019,527
1506084194027,519
1506084194036,509
1506084194045,502
1506084194052,497
1506084194061,491
1506084194069,490
1506084194077,487
1506084194085,486
1506084194093,486
1506084194101,485
1506084194109,486
1506084194113,486
1506084194122,487
1506084194130,488
1506084194138,489
1506084194146,491
1506084194155,491
1506084194163,492
1506084194172,494
1506084194180,494
1506084194188,497
1506084194196,499
1506084194204,500
1506084194212,503
1506084194220,503
1506084194228,505
1506084194236,505
1506084194245,505
1506084194253,505
1506084194261,503
1506084194269,504
1506084194274,503
1506084194282,500
1506084194290,498
1506084194298,494
1506084194306,493
1506084194315,490
1506084194323,488
1506084194331,485
1506084194339,482
1506084194347,481
1506084194356,478
1506084194364,477
1506084194372,477
1506084194380,475
1506084194388,477
1506084194397,476
1506084194404,476
1506084194413,478
1506084194421,478
1506084194428,480
1506084194433,481
1506084194441,482
1506084194449,485
1506084194457,484
1506084194466,488
1506084194474,489
1506084194482,489
1506084194490,491
1506084194498,490
1506084194507,492
1506084194515,492
1506084194523,492
1506084194531,493
1506084194539,492
1506084194547,493
1506084194556,493
1506084194564,492
1506084194572,493
1506084194580,492
1506084194588,493
1506084194592,492
1506084194600,491
1506084194609,491
1506084194617,489
1506084194625,489
1506084194634,488
1506084194642,487
1506084194650,487
1506084194659,484
1506084194667,484
1506084194675,482
1506084194683,481
1506084194692,482
1506084194700,481
1506084194709,484
1506084194716,487
1506084194724,492
1506084194732,499
1506084194740,505
1506084194748,516
1506084194752,528
1506084194761,539
1506084194769,553
1506084194777,563
1506084194785,576
1506084194793,586
1506084194801,594
1506084194809,601
1506084194819,604
1506084194827,606
1506084194835,604
1506084194843,599
1506084194851,594
1506084194859,583
1506084194867,575
1506084194876,564
1506084194884,552
1506084194892,542
1506084194900,529
1506084194908,519
1506084194912,509
1506084194920,500
1506084194928,493
1506084194936,486
1506084194945,483
1506084194954,478
1506084194962,475
1506084194970,474
1506084194978,471
1506084194986,472
1506084194994,472
1506084195002,472
1506084195011,475
1506084195019,476
1506084195027,478
1506084195035,480
1506084195043,482
1506084195051,486
1506084195059,487
1506084195068,491
1506084195072,494
1506084195080,495
1506084195089,499
1506084195097,499
1506084195105,502
1506084195113,504
1506084195122,504
1506084195130,505
1506084195138,505
1506084195146,506
1506084195154,504
1506084195162,502
1506084195170,502
1506084195178,499
1506084195187,497
1506084195195,495
1506084195203,492
1506084195211,490
1506084195219,487
1506084195227,485
1506084195231,483
1506084195240,481
1506084195248,480
1506084195257,478
1506084195265,479
1506084195273,478
1506084195281,477
1506084195289,479
1506084195298,477
1506084195306,478
1506084195314,479
1506084195322,480
1506084195331,483
1506084195339,483
1506084195347,485
1506084195355,487
1506084195363,488
1506084195371,492
1506084195380,491
1506084195387,493
1506084195392,494
1506084195400,494
1506084195408,496
1506084195416,496
1506084195424,497
1506084195432,499
1506084195440,497
1506084195449,498
1506084195457,497
1506084195465,496
1506084195474,497
1506084195482,495
1506084195490,495
1506084195498,493
1506084195506,492
1506084195514,492
1506084195522,490
1506084195531,490
1506084195539,489
1506084195547,492
1506084195551,494
1506084195559,498
1506084195567,505
1506084195575,512
1506084195584,523
1506084195592,535
1506084195600,546
1506084195608,561
1506084195617,573
1506084195625,586
1506084195634,597
1506084195642,606
1506084195650,612
1506084195658,616
1506084195666,617
1506084195675,615
1506084195683,610
1506084195691,606
1506084195699,596
1506084195707,587
1506084195715,576
1506084195719,564
1506084195728,553
1506084195736,540
1506084195744,530
1506084195752,520
1506084195760,510
1506084195769,503
1506084195777,496
1506084195785,491
1506084195793,488
1506084195801,484
1506084195809,482
1506084195817,481
1506084195826,480
1506084195834,480
1506084195842,480
1506084195851,482
1506084195859,481
1506084195867,483
1506084195875,486
1506084195879,486
1506084195887,490
1506084195895,491
1506084195904,494
1506084195912,497
1506084195920,499
1506084195928,502
1506084195936,503
1506084195945,506
1506084195953,508
1506084195961,509
1506084195969,511
1506084195977,511
1506084195985,511
1506084195993,511
1506084196001,509
1506084196009,508
1506084196018,506
1506084196026,503
1506084196034,502
1506084196038,498
1506084196046,496
1506084196054,493
1506084196063,491
1506084196072,489
1506084196080,486
1506084196088,486
1506084196096,483
1506084196105,482
1506084196113,482
1506084196121,482
1506084196129,482
1506084196137,482
1506084196146,483
1506084196154,484
1506084196162,484
1506084196170,486
1506084196178,485
1506084196186,486
1506084196194,488
1506084196199,488
1506084196207,490
1506084196215,490
1506084196223,491
1506084196231,493
1506084196239,493
1506084196248,495
1506084196256,494
1506084196264,495
1506084196272,496
1506084196280,495
1506084196288,497
1506084196297,495
1506084196305,495
1506084196313,496
1506084196321,494
1506084196329,495
1506084196337,494
1506084196345,494
1506084196353,493
1506084196358,491
1506084196366,491
1506084196374,489
1506084196382,489
1506084196391,490
1506084196399,489
1506084196407,491
1506084196415,492
1506084196423,496
1506084196431,502
1506084196440,509
1506084196448,520
1506084196456,530
1506084196465,545
1506084196473,558
1506084196481,571
1506084196489,587
1506084196498,598
1506084196506,608
1506084196514,617
1506084196518,622
1506084196526,625
1506084196535,624
1506084196543,621
1506084196551,615
1506084196559,607
1506084196567,599
1506084196575,586
1506084196583,574
1506084196591,563
1506084196600,550
1506084196608,539
1506084196616,527
1506084196624,517
1506084196632,508
1506084196641,500
1506084196649,496
1506084196657,490
1506084196666,487
1506084196673,486
1506084196678,483
1506084196686,483
1506084196694,483
1506084196702,482
1506084196711,483
1506084196718,483
1506084196726,484
1506084196734,486
1506084196743,487
1506084196751,491
1506084196759,491
1506084196767,495
1506084196775,495
1506084196784,496
1506084196792,500
1506084196800,500
1506084196808,502
1506084196816,503
1506084196825,504
1506084196833,507
1506084196837,507
1506084196846,509
1506084196854,508
1506084196862,508
1506084196870,507
1506084196879,505
1506084196887,504
1506084196894,502
1506084196903,500
1506084196911,498
1506084196920,495
1506084196928,494
1506084196936,492
1506084196945,489
1506084196952,489
1506084196960,487
1506084196969,488
1506084196977,487
1506084196985,486
1506084196993,487
1506084196997,486
1506084197006,488
1506084197013,493
1506084197022,496
1506084197030,495
1506084197038,493
1506084197046,495
1506084197054,494
1506084197063,495
1506084197072,497
1506084197079,496
1506084197087,499
1506084197095,499
1506084197104,499
1506084197112,501
1506084197120,501
1506084197128,502
1506084197136,502
1506084197144,502
1506084197152,503
1506084197156,500
1506084197165,502
1506084197173,500
1506084197182,499
1506084197190,500
1506084197198,497
1506084197206,498
1506084197214,498
1506084197223,497
1506084197231,498
1506084197238,496
1506084197247,499
1506084197255,496
1506084197263,494
1506084197271,494
1506084197279,492
1506084197288,493
1506084197296,493
1506084197305,494
1506084197313,498
1506084197317,502
1506084197325,509
1506084197333,517
1506084197341,527
1506084197350,540
1506084197358,553
1506084197366,570
1506084197374,583
1506084197382,597
1506084197390,610
1506084197398,620
1506084197407,628
1506084197415,632
1506084197423,633
1506084197431,632
1506084197439,627
1506084197447,621
1506084197455,611
1506084197464,600
1506084197472,589
1506084197476,575
1506084197484,563
1506084197492,549
1506084197501,536
1506084197509,526
1506084197518,515
1506084197526,506
1506084197534,499
1506084197542,494
1506084197550,490
1506084197558,486
1506084197566,485
1506084197574,484
1506084197583,483
1506084197591,484
1506084197599,484
1506084197607,485
1506084197615,486
1506084197624,487
1506084197632,489
1506084197640,489
1506084197644,492
1506084197653,494
1506084197661,495
1506084197669,498
1506084197677,500
1506084197685,502
1506084197693,505
1506084197701,506
1506084197710,509
1506084197718,509
1506084197726,511
1506084197734,512
1506084197742,511
1506084197750,512
1506084197759,511
1506084197767,510
1506084197776,509
1506084197784,506
1506084197792,505
1506084197800,502
1506084197804,500
1506084197812,497
1506084197821,494
1506084197829,492
1506084197837,489
1506084197845,488
1506084197853,488
1506084197861,486
1506084197869,487
1506084197878,486
1506084197886,486
1506084197894,486
1506084197902,486
1506084197910,488
1506084197918,487
1506084197927,489
1506084197934,490
1506084197944,490
1506084197952,493
1506084197960,492
1506084197964,494
1506084197972,494
1506084197980,495
1506084197988,496
1506084197997,496
1506084198005,497
1506084198013,497
1506084198021,496
1506084198029,498
1506084198037,496
1506084198046,498
1506084198054,498
1506084198062,498
1506084198070,500
1506084198078,499
1506084198086,499
1506084198095,499
1506084198103,498
1506084198111,498
1506084198118,495
1506084198123,495
1506084198131,494
1506084198140,492
1506084198149,492
1506084198156,489
1506084198165,488
1506084198173,489
1506084198181,488
1506084198189,490
1506084198197,491
1506084198205,497
1506084198213,504
1506084198222,512
1506084198230,524
1506084198238,535
1506084198246,549
1506084198254,564
1506084198262,575
1506084198271,590
1506084198279,601
1506084198284,611
1506084198292,618
1506084198300,621
1506084198308,623
1506084198316,619
1506084198325,615
1506084198333,608
1506084198341,597
1506084198349,586
1506084198357,573
1506084198365,560
1506084198373,547
1506084198382,533
1506084198390,522
1506084198398,511
1506084198406,503
1506084198414,494
1506084198423,487
1506084198431,484
1506084198439,478
1506084198443,477
1506084198451,475
1506084198459,473
1506084198468,474
1506084198476,474
1506084198484,475
1506084198492,475
1506084198500,476
1506084198508,479
1506084198516,480
1506084198525,482
1506084198533,485
1506084198541,487
1506084198549,491
1506084198557,493
1506084198566,496
1506084198574,500
1506084198582,501
1506084198590,504
1506084198598,505
1506084198602,507
1506084198611,509
1506084198619,509
1506084198628,510
1506084198636,508
1506084198644,508
1506084198652,506
1506084198660,504
1506084198669,503
1506084198676,499
1506084198685,496
1506084198693,494
1506084198701,491
1506084198709,489
1506084198718,485
1506084198726,483
1506084198734,482
1506084198742,479
1506084198750,479
1506084198758,477
1506084198762,475
1506084198770,477
1506084198778,476
1506084198786,477
1506084198795,477
1506084198803,479
1506084198811,480
1506084198820,480
1506084198828,484
1506084198836,484
1506084198845,486
1506084198853,488
1506084198861,488
1506084198869,490
1506084198877,492
1506084198886,493
1506084198894,494
1506084198902,494
1506084198910,496
1506084198918,495
1506084198922,496
1506084198930,496
1506084198939,494
1506084198947,495
1506084198955,494
1506084198963,494
1506084198971,494
1506084198979,491
1506084198987,491
1506084198996,489
1506084199004,489
1506084199012,489
1506084199020,488
1506084199029,491
1506084199037,493
1506084199045,498
1506084199053,506
1506084199061,512
1506084199070,525
1506084199077,536
1506084199082,550
1506084199090,565
1506084199098,578
1506084199106,592
1506084199114,603
1506084199123,611
1506084199131,619
1506084199139,621
1506084199147,622
1506084199155,619
1506084199164,613
1506084199172,606
1506084199180,596
1506084199188,584
1506084199196,571
1506084199205,559
1506084199213,546
1506084199221,532
1506084199229,523
1506084199237,512
1506084199241,503
1506084199250,498
1506084199258,490
1506084199266,486
1506084199274,483
1506084199282,480
1506084199290,479
1506084199299,476
1506084199307,477
1506084199315,477
1506084199323,478
1506084199331,481
1506084199340,481
1506084199348,485
1506084199356,487
1506084199364,488
1506084199372,492
1506084199381,494
1506084199389,497
1506084199397,499
1506084199405,502
1506084199409,506
1506084199417,507
1506084199426,511
1506084199434,512
1506084199442,512
1506084199450,513
1506084199458,512
1506084199466,512
1506084199475,511
1506084199483,510
1506084199491,509
1506084199499,507
1506084199507,506
1506084199515,502
1506084199524,500
1506084199532,498
1506084199540,494
1506084199548,493
1506084199556,490
1506084199565,488
1506084199569,487
1506084199577,484
1506084199585,484
1506084199594,483
1506084199601,482
1506084199610,483
1506084199618,483
1506084199627,484
1506084199635,484
1506084199643,485
1506084199651,488
1506084199659,488
1506084199667,491
1506084199676,492
1506084199684,494
1506084199692,495
1506084199700,496
1506084199708,497
1506084199716,498
1506084199724,499
1506084199729,500
1506084199737,499
1506084199745,500
1506084199754,499
1506084199762,498
1506084199771,498
1506084199778,497
1506084199786,496
1506084199794,495
1506084199803,494
1506084199811,494
1506084199819,491
1506084199827,492
1506084199835,491
1506084199843,489
1506084199851,490
1506084199860,488
1506084199868,487
1506084199876,486
1506084199885,485
1506084199889,486
1506084199897,486
1506084199905,489
1506084199913,492
1506084199922,497
1506084199930,506
1506084199938,515
1506084199946,528
1506084199954,542
1506084199962,556
1506084199970,572
1506084199978,586
1506084199987,600
1506084199995,612
1506084200003,622
1506084200011,629
1506084200019,632
1506084200028,633
1506084200035,629
1506084200044,623
1506084200049,616
1506084200057,604
1506084200065,592
1506084200073,579
1506084200081,566
1506084200089,554
1506084200097,540
1506084200106,529
1506084200114,518
1506084200122,508
1506084200130,501
1506084200138,494
1506084200146,490
1506084200155,486
1506084200163,483
1506084200171,483
1506084200179,481
1506084200187,482
1506084200195,481
1506084200204,482
1506084200208,484
1506084200216,483
1506084200224,486
1506084200232,488
1506084200241,489
1506084200250,491
1506084200258,493
1506084200266,495
1506084200274,498
1506084200282,500
1506084200290,503
1506084200299,503
1506084200308,506
1506084200315,508
1506084200323,509
1506084200331,511
1506084200340,509
1506084200348,511
1506084200356,511
1506084200364,508
1506084200368,508
1506084200376,505
1506084200385,503
1506084200393,501
1506084200401,498
1506084200409,497
1506084200417,493
1506084200425,491
1506084200434,489
1506084200442,486
1506084200450,487
1506084200458,484
1506084200466,483
1506084200475,483
1506084200483,483
1506084200492,483
1506084200499,483
1506084200507,485
1506084200515,485
1506084200524,487
1506084200528,488
1506084200536,488
1506084200544,491
1506084200552,494
1506084200560,494
1506084200569,496
1506084200577,497
1506084200585,498
1506084200593,498
1506084200601,498
1506084200609,500
1506084200618,498
1506084200626,499
1506084200634,499
1506084200643,499
1506084200651,499
1506084200659,498
1506084200668,498
1506084200675,498
1506084200683,497
1506084200687,498
1506084200696,497
1506084200704,497
1506084200712,497
1506084200721,496
1506084200728,497
1506084200736,495
1506084200745,495
1506084200752,495
1506084200761,493
1506084200769,493
1506084200777,492
1506084200786,492
1506084200793,491
1506084200802,491
1506084200810,493
1506084200818,494
1506084200826,499
1506084200834,506
1506084200843,513
1506084200847,525
1506084200855,536
1506084200863,550
1506084200871,565
1506084200879,580
1506084200888,595
1506084200896,608
1506084200904,620
1506084200912,628
1506084200920,633
1506084200928,637
1506084200937,636
1506084200945,632
1506084200953,625
1506084200961,615
1506084200969,604
1506084200978,591
1506084200986,577
1506084200994,564
1506084201002,549
1506084201010,538
1506084201014,525
1506084201023,516
1506084201031,507
1506084201039,498
1506084201047,494
1506084201055,489
1506084201064,486
1506084201072,484
1506084201080,483
1506084201088,484
1506084201096,483
1506084201105,484
1506084201113,486
1506084201121,486
1506084201129,487
1506084201137,487
1506084201145,488
1506084201154,491
1506084201162,492
1506084201170,495
1506084201174,496
1506084201182,498
1506084201191,500
1506084201199,501
1506084201207,504
1506084201215,505
1506084201224,506
1506084201231,508
1506084201240,507
1506084201248,509
1506084201256,508
1506084201265,507
1506084201273,506
1506084201282,503
1506084201290,502
1506084201298,498
1506084201306,496
1506084201314,494
1506084201322,490
1506084201330,489
1506084201335,485
1506084201343,483
1506084201351,482
1506084201359,478
1506084201368,479
1506084201376,476
1506084201384,476
1506084201392,477
1506084201400,475
1506084201408,477
1506084201416,477
1506084201425,477
1506084201433,479
1506084201441,479
1506084201449,481
1506084201457,481
1506084201465,483
1506084201473,484
1506084201482,484
1506084201489,486
1506084201495,486
1506084201503,487
1506084201511,489
1506084201519,488
1506084201527,490
1506084201535,491
1506084201544,491
1506084201552,491
1506084201560,490
1506084201568,491
1506084201576,489
1506084201584,489
1506084201593,490
1506084201601,487
1506084201609,488
1506084201617,487
1506084201626,486
1506084201633,486
1506084201641,485
1506084201650,486
1506084201654,484
1506084201662,484
1506084201670,484
1506084201678,481
1506084201687,483
1506084201695,481
1506084201703,481
1506084201711,483
1506084201719,484
1506084201727,489
1506084201736,493
1506084201744,500
1506084201752,510
1506084201760,519
1506084201768,533
1506084201776,546
1506084201785,560
1506084201794,575
1506084201802,585
1506084201810,598
1506084201814,607
1506084201822,612
1506084201830,616
1506084201838,616
1506084201846,614
1506084201854,607
1506084201863,600
1506084201871,592
1506084201879,579
1506084201887,568
1506084201896,554
1506084201904,541
1506084201912,528
1506084201920,516
1506084201929,506
1506084201937,496
1506084201945,487
1506084201953,482
1506084201961,475
1506084201969,472
1506084201973,468
1506084201981,467
1506084201989,467
1506084201997,464
1506084202006,467
1506084202014,468
1506084202023,468
1506084202031,471
1506084202039,472
1506084202048,475
1506084202056,478
1506084202064,480
1506084202072,485
1506084202080,486
1506084202089,491
1506084202097,494
1506084202104,496
1506084202113,499
1506084202121,501
1506084202129,504
1506084202133,504
1506084202141,504
1506084202150,505
1506084202158,503
1506084202166,503
1506084202174,501
1506084202182,499
1506084202191,498
1506084202199,494
1506084202207,492
1506084202215,489
1506084202224,486
1506084202232,485
1506084202240,482
1506084202248,481
1506084202256,480
1506084202264,477
1506084202273,476
1506084202281,475
1506084202289,476
1506084202293,476
1506084202301,475
1506084202309,477
1506084202317,476
1506084202325,478
1506084202334,478
1506084202343,479
1506084202351,481
1506084202359,481
1506084202367,483
1506084202375,485
1506084202383,485
1506084202391,488
1506084202400,488
1506084202408,491
1506084202416,492
1506084202424,492
1506084202432,494
1506084202440,493
1506084202448,494
1506084202453,494
1506084202461,495
1506084202469,502
1506084202478,499
1506084202486,500
1506084202494,498
1506084202502,495
1506084202510,498
1506084202518,493
1506084202526,494
1506084202534,495
1506084202542,488
1506084202550,485
1506084202559,483
1506084202567,485
1506084202576,488
1506084202584,493
1506084202592,503
1506084202600,512
1506084202608,527
1506084202612,540
1506084202620,554
1506084202629,569
1506084202637,582
1506084202646,595
1506084202653,605
1506084202662,613
1506084202670,618
1506084202678,620
1506084202686,620
1506084202694,615
1506084202702,607
1506084202710,599
1506084202718,587
1506084202726,575
1506084202735,563
1506084202743,550
1506084202751,538
1506084202759,525
1506084202767,516
1506084202776,505
1506084202780,497
1506084202788,492
1506084202796,485
1506084202806,482
1506084202813,480
1506084202821,477
1506084202831,477
1506084202838,476
1506084202846,477
1506084202854,477
1506084202863,477
1506084202871,479
1506084202879,480
1506084202887,483
1506084202895,485
1506084202903,486
1506084202911,490
1506084202919,491
1506084202927,493
1506084202935,496
1506084202940,498
1506084202948,501
1506084202956,505
1506084202964,509
1506084202973,508
1506084202981,508
1506084202990,509
1506084202998,508
1506084203006,507
1506084203014,506
1506084203022,503
1506084203030,503
1506084203038,499
1506084203047,498
1506084203055,495
1506084203063,493
1506084203072,491
1506084203080,488
1506084203087,486
1506084203096,484
1506084203100,482
1506084203108,484
1506084203116,481
1506084203124,481
1506084203133,481
1506084203141,480
1506084203149,481
1506084203157,479
1506084203166,480
1506084203174,481
1506084203182,481
1506084203191,484
1506084203198,484
1506084203206,486
1506084203214,489
1506084203222,489
1506084203231,492
1506084203239,493
1506084203247,493
1506084203255,494
1506084203259,494
1506084203268,495
1506084203276,494
1506084203284,495
1506084203292,495
1506084203300,494
1506084203309,496
1506084203317,495
1506084203325,495
1506084203333,495
1506084203342,495
1506084203351,494
1506084203358,493
1506084203366,494
1506084203374,492
1506084203383,492
1506084203390,492
1506084203398,490
1506084203406,490
1506084203414,490
1506084203419,488
1506084203427,490
1506084203435,491
1506084203443,495
1506084203451,500
1506084203460,506
1506084203468,517
1506084203476,527
1506084203484,541
1506084203492,556
1506084203501,572
1506084203509,591
1506084203517,600
1506084203525,610
1506084203533,618
1506084203541,624
1506084203550,628
1506084203558,628
1506084203566,627
1506084203574,621
1506084203579,613
1506084203588,605
1506084203596,591
1506084203604,579
1506084203612,566
1506084203620,552
1506084203628,539
1506084203637,527
1506084203645,516
1506084203653,508
1506084203661,499
1506084203669,494
1506084203677,488
1506084203685,488
1506084203693,489
1506084203702,484
1506084203710,483
1506084203718,480
1506084203726,480
1506084203734,481
1506084203738,480
1506084203746,482
1506084203755,482
1506084203763,483
1506084203771,484
1506084203779,485
1506084203788,488
1506084203796,488
1506084203805,491
1506084203813,494
1506084203821,495
1506084203829,498
1506084203837,500
1506084203845,502
1506084203853,504
1506084203861,505
1506084203870,506
1506084203878,506
1506084203886,507
1506084203895,506
1506084203898,504
1506084203906,505
1506084203914,503
1506084203923,500
1506084203931,498
1506084203939,494
1506084203947,492
1506084203955,489
1506084203964,488
1506084203973,487
1506084203981,485
1506084203989,485
1506084203997,483
1506084204005,483
1506084204013,485
1506084204021,488
1506084204030,490
1506084204038,487
1506084204046,488
1506084204054,485
1506084204058,484
1506084204066,485
1506084204074,485
1506084204082,486
1506084204091,488
1506084204099,489
1506084204108,492
1506084204116,493
1506084204124,494
1506084204132,497
1506084204140,497
1506084204148,498
1506084204156,499
1506084204165,499
1506084204173,501
1506084204181,501
1506084204189,502
1506084204197,500
1506084204206,501
1506084204213,500
1506084204221,498
1506084204226,499
1506084204234,497
1506084204242,496
1506084204250,495
1506084204258,494
1506084204267,493
1506084204275,491
1506084204283,491
1506084204291,491
1506084204299,489
1506084204308,491
1506084204316,491
1506084204325,490
1506084204333,492
1506084204341,493
1506084204349,498
1506084204357,504
1506084204366,512
1506084204374,523
1506084204382,534
1506084204386,548
1506084204394,562
1506084204402,577
1506084204411,592
1506084204419,603
1506084204426,616
1506084204435,623
1506084204443,628
1506084204451,631
1506084204459,629
1506084204468,626
1506084204476,619
1506084204484,610
1506084204492,600
1506084204500,587
1506084204508,575
1506084204516,560
1506084204525,547
1506084204533,536
1506084204541,524
1506084204545,515
1506084204553,506
1506084204561,498
1506084204570,493
1506084204578,488
1506084204586,485
1506084204594,482
1506084204602,481
1506084204611,481
1506084204619,480
1506084204627,481
1506084204635,481
1506084204643,481
1506084204652,482
1506084204660,483
1506084204668,485
1506084204676,486
1506084204684,488
1506084204693,490
1506084204701,491
1506084204706,495
1506084204714,496
1506084204722,497
1506084204730,500
1506084204738,500
1506084204747,503
1506084204755,504
1506084204763,505
1506084204771,506
1506084204779,505
1506084204787,506
1506084204795,505
1506084204804,504
1506084204812,503
1506084204820,500
1506084204828,499
1506084204836,496
1506084204844,494
1506084204852,492
1506084204861,489
1506084204865,487
1506084204873,485
1506084204881,483
1506084204890,482
1506084204898,480
1506084204906,481
1506084204914,480
1506084204922,480
1506084204930,482
1506084204939,481
1506084204947,482
1506084204955,482
1506084204964,483
1506084204971,484
1506084204979,484
1506084204987,486
1506084204996,486
1506084205004,486
1506084205013,488
1506084205021,487
1506084205025,489
1506084205033,489
1506084205041,489
1506084205049,490
1506084205057,489
1506084205066,489
1506084205074,490
1506084205082,489
1506084205091,490
1506084205099,488
1506084205107,489
1506084205115,489
1506084205123,489
1506084205131,489
1506084205140,487
1506084205147,487
1506084205156,485
1506084205163,484
1506084205172,484
1506084205181,482
1506084205185,482
1506084205193,481
1506084205201,481
1506084205209,481
1506084205218,480
1506084205226,481
1506084205233,481
1506084205242,482
1506084205250,485
1506084205258,488
1506084205266,495
1506084205274,502
1506084205282,511
1506084205290,524
1506084205299,535
1506084205307,550
1506084205315,563
1506084205324,576
1506084205331,588
1506084205339,597
1506084205345,607
1506084205352,611
1506084205360,613
1506084205368,613
1506084205377,608
1506084205385,603
1506084205393,595
1506084205401,584
1506084205409,573
1506084205417,560
1506084205425,547
1506084205434,535
1506084205442,522
1506084205450,512
1506084205459,500
1506084205467,493
1506084205475,485
1506084205483,479
1506084205492,476
1506084205500,473
1506084205504,471
1506084205512,471
1506084205520,470
1506084205528,470
1506084205537,470
1506084205546,472
1506084205553,472
1506084205561,474
1506084205570,476
1506084205578,476
1506084205586,480
1506084205594,483
1506084205602,484
1506084205610,488
1506084205618,490
1506084205627,494
1506084205635,496
1506084205643,499
1506084205651,502
1506084205659,502
1506084205667,505
1506084205672,506
1506084205680,505
1506084205688,506
1506084205696,505
1506084205705,505
1506084205713,503
1506084205721,500
1506084205729,499
1506084205737,495
1506084205746,493
1506084205754,491
1506084205762,487
1506084205770,486
1506084205778,482
1506084205786,480
1506084205794,479
1506084205802,477
1506084205811,477
1506084205819,475
1506084205827,476
1506084205831,476
1506084205839,475
1506084205848,478
1506084205856,477
1506084205864,479
1506084205872,480
1506084205881,480
1506084205889,483
1506084205897,483
1506084205905,486
1506084205913,487
1506084205921,488
1506084205929,490
1506084205938,491
1506084205946,494
1506084205954,494
1506084205962,493
1506084205970,495
1506084205978,493
1506084205986,494
1506084205991,495
1506084205999,494
1506084206007,494
1506084206015,493
1506084206024,492
1506084206032,492
1506084206040,491
1506084206049,492
1506084206057,490
1506084206065,489
1506084206073,488
1506084206081,487
1506084206089,489
1506084206098,488
1506084206106,491
1506084206114,495
1506084206122,501
1506084206130,509
1506084206138,518
1506084206146,530
1506084206151,543
1506084206159,556
1506084206167,571
1506084206175,583
1506084206185,594
1506084206192,605
1506084206201,610
1506084206209,616
1506084206217,617
1506084206225,616
1506084206233,612
1506084206242,604
1506084206249,597
1506084206258,586
1506084206266,575
1506084206274,563
1506084206283,549
1506084206291,538
1506084206299,525
1506084206307,514
1506084206311,505
1506084206319,496
1506084206327,490
1506084206336,483
1506084206344,480
1506084206352,477
1506084206360,473
1506084206369,474
1506084206376,473
1506084206385,473
1506084206393,475
1506084206401,475
1506084206409,477
1506084206417,477
1506084206425,480
1506084206433,482
1506084206442,483
1506084206450,487
1506084206458,488
1506084206466,492
1506084206470,496
1506084206478,498
1506084206486,502
1506084206496,503
1506084206504,506
1506084206512,508
1506084206520,512
1506084206528,513
1506084206536,512
1506084206545,512
1506084206553,512
1506084206561,510
1506084206569,508
1506084206577,503
1506084206585,502
1506084206593,500
1506084206601,496
1506084206609,496
1506084206618,492
1506084206626,489
1506084206630,487
1506084206638,484
1506084206646,484
1506084206655,481
1506084206663,481
1506084206671,481
1506084206679,479
1506084206687,481
1506084206696,482
1506084206704,482
1506084206712,484
1506084206720,485
1506084206728,487
1506084206737,486
1506084206746,488
1506084206753,489
1506084206762,489
1506084206770,493
1506084206778,492
1506084206787,494
1506084206790,496
1506084206799,495
1506084206807,497
1506084206815,497
1506084206823,496
1506084206831,497
1506084206839,495
1506084206847,496
1506084206856,495
1506084206864,494
1506084206872,495
1506084206880,492
1506084206888,493
1506084206896,493
1506084206904,491
1506084206913,489
1506084206921,487
1506084206929,487
1506084206937,486
1506084206945,485
1506084206949,486
1506084206958,486
1506084206966,490
1506084206975,493
1506084206983,498
1506084206991,507
1506084206999,516
1506084207007,528
1506084207016,541
1506084207024,555
1506084207032,570
1506084207040,583
1506084207048,597
1506084207057,608
1506084207065,616
1506084207073,623
1506084207081,626
1506084207089,628
1506084207097,626
1506084207105,619
1506084207109,612
1506084207118,601
1506084207126,591
1506084207134,578
1506084207142,565
1506084207150,552
1506084207158,538
1506084207166,529
1506084207175,517
1506084207183,508
1506084207191,501
1506084207199,494
1506084207208,490
1506084207217,486
1506084207225,483
1506084207233,482
1506084207241,480
1506084207249,481
1506084207257,482
1506084207266,482
1506084207270,483
1506084207278,482
1506084207286,483
1506084207294,484
1506084207302,485
1506084207311,488
1506084207319,488
1506084207327,490
1506084207335,492
1506084207343,494
1506084207351,497
1506084207359,498
1506084207368,502
1506084207376,502
1506084207384,504
1506084207392,507
1506084207400,505
1506084207408,507
1506084207417,506
1506084207425,505
1506084207429,505
1506084207437,502
1506084207445,501
1506084207453,498
1506084207462,496
1506084207470,496
1506084207478,491
1506084207486,491
1506084207494,488
1506084207502,487
1506084207511,487
1506084207519,484
1506084207527,484
1506084207535,484
1506084207544,483
1506084207552,483
1506084207560,483
1506084207568,484
1506084207576,484
1506084207584,485
1506084207592,488
1506084207597,488
1506084207605,489
1506084207613,490
1506084207621,491
1506084207629,494
1506084207638,494
1506084207646,496
1506084207654,496
1506084207662,497
1506084207670,499
1506084207678,497
1506084207687,500
1506084207695,505
1506084207703,505
1506084207711,507
1506084207719,505
1506084207728,505
1506084207736,506
1506084207744,504
1506084207752,505
1506084207756,502
1506084207764,501
1506084207773,498
1506084207781,496
1506084207789,498
1506084207797,495
1506084207805,494
1506084207813,494
1506084207822,490
1506084207830,490
1506084207838,484
1506084207846,482
1506084207854,480
1506084207862,479
1506084207871,481
1506084207879,483
1506084207887,489
1506084207895,496
1506084207904,503
1506084207912,516
1506084207916,527
1506084207924,541
1506084207932,557
1506084207940,571
1506084207949,587
1506084207957,599
1506084207965,611
1506084207974,621
1506084207982,626
1506084207990,631
1506084207999,630
1506084208007,628
1506084208015,622
1506084208023,613
1506084208031,603
1506084208040,591
1506084208048,579
1506084208056,567
1506084208064,554
1506084208072,543
1506084208077,529
1506084208085,519
1506084208093,510
1506084208101,501
1506084208109,496
1506084208117,491
1506084208125,486
1506084208133,484
1506084208141,481
1506084208149,482
1506084208158,481
1506084208166,482
1506084208174,481
1506084208182,483
1506084208190,486
1506084208198,484
1506084208207,486
1506084208216,487
1506084208224,487
1506084208232,491
1506084208237,491
1506084208245,494
1506084208253,496
1506084208261,498
1506084208269,501
1506084208277,504
1506084208286,505
1506084208293,507
1506084208301,502
1506084208309,502
1506084208318,499
1506084208326,500
1506084208334,498
1506084208342,497
1506084208350,497
1506084208359,496
1506084208367,495
1506084208375,493
1506084208383,491
1506084208391,491
1506084208397,488
1506084208404,488
1506084208411,487
1506084208420,484
1506084208428,485
1506084208436,483
1506084208444,483
1506084208453,483
1506084208461,483
1506084208469,484
1506084208477,483
1506084208485,486
1506084208494,487
1506084208502,487
1506084208510,490
1506084208518,490
1506084208527,492
1506084208535,493
1506084208543,494
1506084208551,496
1506084208555,495
1506084208563,498
1506084208571,498
1506084208580,497
1506084208588,499
1506084208597,498
1506084208605,498
1506084208613,499
1506084208621,498
1506084208629,499
1506084208638,497
1506084208646,497
1506084208654,496
1506084208662,494
1506084208670,494
1506084208678,492
1506084208687,492
1506084208695,492
1506084208703,491
1506084208711,492
1506084208715,490
1506084208723,490
1506084208732,490
1506084208740,489
1506084208748,490
1506084208756,488
1506084208764,489
1506084208774,489
1506084208780,489
1506084208789,491
1506084208797,489
1506084208806,491
1506084208814,494
1506084208822,498
1506084208830,505
1506084208838,512
1506084208846,523
1506084208854,534
1506084208863,547
1506084208871,563
1506084208875,576
1506084208883,591
1506084208891,603
1506084208899,614
1506084208908,623
1506084208916,627
1506084208925,629
1506084208932,633
1506084208940,630
1506084208949,624
1506084208957,613
1506084208965,602
1506084208974,589
1506084208981,577
1506084208990,563
1506084208998,549
1506084209006,535
1506084209014,520
1506084209022,507
1506084209030,499
1506084209034,490
1506084209043,486
1506084209051,481
1506084209059,477
1506084209067,478
1506084209075,476
1506084209084,476
1506084209092,476
1506084209100,477
1506084209108,479
1506084209116,479
1506084209125,481
1506084209132,483
1506084209141,484
1506084209149,487
1506084209157,488
1506084209165,490
1506084209173,493
1506084209182,495
1506084209190,498
1506084209198,500
1506084209202,503
1506084209210,504
1506084209218,506
1506084209227,509
1506084209235,508
1506084209244,509
1506084209252,509
1506084209260,507
1506084209268,507
1506084209276,504
1506084209285,502
1506084209293,499
1506084209302,495
1506084209310,493
1506084209318,489
1506084209326,487
1506084209334,485
1506084209342,481
1506084209350,484
1506084209358,479
1506084209362,477
1506084209370,474
1506084209378,471
1506084209387,471
1506084209395,470
1506084209403,471
1506084209411,472
1506084209419,472
1506084209427,476
1506084209436,477
1506084209444,478
1506084209452,481
1506084209460,482
1506084209468,484
1506084209476,485
1506084209485,486
1506084209493,489
1506084209501,488
1506084209509,490
1506084209517,490
1506084209522,491
1506084209530,490
1506084209538,490
1506084209546,490
1506084209554,489
1506084209562,490
1506084209571,490
1506084209579,488
1506084209587,488
1506084209595,487
1506084209603,486
1506084209612,486
1506084209619,484
1506084209628,485
1506084209636,483
1506084209645,482
1506084209652,483
1506084209661,480
1506084209670,481
1506084209678,480
1506084209681,480
1506084209689,481
1506084209697,480
1506084209706,483
1506084209714,485
1506084209722,489
1506084209731,494
1506084209739,501
1506084209748,513
1506084209756,524
1506084209764,537
1506084209772,552
1506084209780,564
1506084209788,578
1506084209796,589
1506084209805,599
1506084209813,607
1506084209821,610
1506084209829,614
1506084209837,613
1506084209841,609
1506084209850,603
1506084209858,593
1506084209866,582
1506084209874,569
1506084209882,557
1506084209890,543
1506084209899,528
1506084209907,518
1506084209915,506
1506084209923,496
1506084209931,489
1506084209939,479
1506084209947,476
1506084209956,471
1506084209964,467
1506084209972,467
1506084209980,465
1506084209988,465
1506084209996,465
1506084210001,466
1506084210009,469
1506084210017,469
1506084210026,473
1506084210033,475
1506084210042,477
1506084210050,482
1506084210058,484
1506084210066,489
1506084210075,491
1506084210083,495
1506084210092,498
1506084210100,500
1506084210108,504
1506084210116,505
1506084210125,506
1506084210133,508
1506084210141,507
1506084210149,507
1506084210157,506
1506084210161,504
1506084210170,505
1506084210178,501
1506084210186,500
1506084210195,497
1506084210202,494
1506084210210,492
1506084210218,488
1506084210226,487
1506084210235,485
1506084210243,483
1506084210251,484
1506084210259,482
1506084210267,482
1506084210275,482
1506084210284,481
1506084210292,483
1506084210300,483
1506084210308,484
1506084210316,484
1506084210320,485
1506084210328,487
1506084210336,486
1506084210345,489
1506084210353,489
1506084210361,490
1506084210369,492
1506084210377,492
1506084210385,493
1506084210394,494
1506084210402,495
1506084210410,497
1506084210418,496
1506084210427,498
1506084210435,498
1506084210443,498
1506084210451,499
1506084210460,497
1506084210468,497
1506084210476,496
1506084210479,495
1506084210489,495
1506084210497,493
1506084210505,494
1506084210513,492
1506084210521,491
1506084210530,491
1506084210538,489
1506084210546,490
1506084210554,489
1506084210562,489
1506084210570,491
1506084210579,494
1506084210587,498
1506084210595,505
1506084210603,514
1506084210611,526
1506084210619,538
1506084210628,553
1506084210636,566
1506084210640,580
1506084210648,594
1506084210656,605
1506084210665,615
1506084210673,621
1506084210681,625
1506084210689,626
1506084210697,623
1506084210705,618
1506084210714,611
1506084210722,600
1506084210730,589
1506084210738,576
1506084210746,564
1506084210755,550
1506084210763,537
1506084210771,526
1506084210779,514
1506084210788,506
1506084210796,497
1506084210800,491
1506084210808,488
1506084210816,483
1506084210824,481
1506084210832,481
1506084210841,482
1506084210849,486
1506084210857,486
1506084210865,487
1506084210873,489
1506084210882,490
1506084210890,494
1506084210898,494
1506084210906,496
1506084210914,497
1506084210922,494
1506084210931,495
1506084210939,494
1506084210947,497
1506084210955,499
1506084210963,500
1506084210967,504
1506084210976,504
1506084210984,505
1506084210993,507
1506084211001,507
1506084211009,508
1506084211017,507
1506084211025,507
1506084211033,506
1506084211041,503
1506084211050,502
1506084211058,498
1506084211066,496
1506084211074,495
1506084211082,491
1506084211091,493
1506084211099,493
1506084211107,492
1506084211115,487
1506084211123,484
1506084211127,485
1506084211136,486
1506084211143,488
1506084211151,489
1506084211160,488
1506084211169,490
1506084211177,490
1506084211185,491
1506084211194,488
1506084211202,488
1506084211210,490
1506084211218,489
1506084211226,491
1506084211234,492
1506084211242,492
1506084211251,495
1506084211259,497
1506084211267,499
1506084211275,496
1506084211283,495
1506084211287,496
1506084211296,495
1506084211304,495
1506084211312,496
1506084211320,495
1506084211328,497
1506084211336,495
1506084211345,496
1506084211353,496
1506084211361,495
1506084211369,496
1506084211377,496
1506084211385,496
1506084211393,496
1506084211402,495
1506084211410,495
1506084211418,494
1506084211426,494
1506084211435,494
1506084211443,493
1506084211447,494
1506084211455,493
1506084211463,493
1506084211473,495
1506084211480,496
1506084211488,500
1506084211496,505
1506084211504,513
1506084211512,524
1506084211521,535
1506084211529,550
1506084211537,563
1506084211546,579
1506084211553,594
1506084211561,607
1506084211570,619
1506084211578,627
1506084211586,633
1506084211594,636
1506084211602,634
1506084211607,632
1506084211615,624
1506084211623,617
1506084211631,607
1506084211639,593
1506084211648,581
1506084211657,566
1506084211664,553
1506084211673,542
1506084211680,529
1506084211688,520
1506084211697,510
1506084211705,501
1506084211713,494
1506084211721,488
1506084211729,486
1506084211737,482
1506084211746,481
1506084211754,480
1506084211762,478
1506084211766,480
1506084211775,480
1506084211783,481
1506084211791,483
1506084211799,482
1506084211807,486
1506084211815,486
1506084211824,489
1506084211832,492
1506084211840,493
1506084211848,498
1506084211856,499
1506084211865,501
1506084211872,504
1506084211881,505
1506084211889,507
1506084211898,507
1506084211906,508
1506084211914,509
1506084211922,507
1506084211926,508
1506084211934,507
1506084211943,506
1506084211951,505
1506084211959,502
1506084211967,502
1506084211975,498
1506084211983,496
1506084211991,495
1506084211999,493
1506084212008,491
1506084212016,488
1506084212025,487
1506084212033,487
1506084212041,485
1506084212049,486
1506084212057,485
1506084212066,485
1506084212074,487
1506084212082,487
1506084212086,489
1506084212094,489
1506084212102,490
1506084212111,491
1506084212119,491
1506084212127,493
1506084212135,493
1506084212143,494
1506084212151,497
1506084212160,495
1506084212168,497
1506084212176,498
1506084212184,498
1506084212192,499
1506084212201,499
1506084212209,500
1506084212217,500
1506084212226,500
1506084212234,501
1506084212242,498
1506084212246,499
1506084212254,500
1506084212262,498
1506084212270,498
1506084212279,497
1506084212287,496
1506084212295,495
1506084212303,494
1506084212311,494
1506084212320,492
1506084212328,493
1506084212336,490
1506084212344,490
1506084212352,490
1506084212362,488
1506084212368,488
1506084212377,488
1506084212385,488
1506084212393,490
1506084212401,492
1506084212405,497
1506084212413,501
1506084212421,509
1506084212430,520
1506084212438,530
1506084212446,544
1506084212454,558
1506084212463,572
1506084212471,587
1506084212479,599
1506084212487,610
1506084212495,618
1506084212503,623
1506084212511,627
1506084212519,625
1506084212528,622
1506084212536,615
1506084212545,606
1506084212554,596
1506084212562,582
1506084212569,570
1506084212573,556
1506084212582,542
1506084212590,529
1506084212598,516
1506084212606,507
1506084212614,498
1506084212622,489
1506084212630,485
1506084212639,480
1506084212647,478
1506084212655,476
1506084212663,476
1506084212671,476
1506084212680,475
1506084212688,477
1506084212696,478
1506084212704,478
1506084212712,481
1506084212720,482
1506084212728,484
1506084212733,487
1506084212741,488
1506084212749,491
1506084212757,492
1506084212765,495
1506084212773,495
1506084212782,497
1506084212790,500
1506084212798,500
1506084212806,502
1506084212814,504
1506084212823,504
1506084212832,504
1506084212840,502
1506084212848,502
1506084212856,500
1506084212864,498
1506084212872,498
1506084212880,495
1506084212888,493
1506084212892,492
1506084212901,489
1506084212909,487
1506084212917,484
1506084212926,482
1506084212934,480
1506084212942,478
1506084212950,477
1506084212958,475
1506084212967,475
1506084212975,474
1506084212983,474
1506084212991,475
1506084212999,474
1506084213007,476
1506084213015,476
1506084213024,476
1506084213032,479
1506084213040,479
1506084213048,480
1506084213052,481
1506084213061,483
1506084213068,485
1506084213076,485
1506084213085,487
1506084213094,487
1506084213102,487
1506084213110,490
1506084213118,488
1506084213127,490
1506084213135,490
1506084213143,490
1506084213151,490
1506084213159,489
1506084213168,490
1506084213175,489
1506084213184,488
1506084213192,489
1506084213200,487
1506084213208,488
1506084213212,487
1506084213220,485
1506084213229,485
1506084213237,484
1506084213245,485
1506084213253,487
1506084213261,490
1506084213269,497
1506084213278,504
1506084213286,515
1506084213294,527
1506084213302,539
1506084213310,554
1506084213318,566
1506084213327,581
1506084213335,597
1506084213343,609
1506084213351,618
1506084213359,623
1506084213367,624
1506084213372,619
1506084213380,613
1506084213388,606
1506084213396,595
1506084213405,588
1506084213413,574
1506084213421,560
1506084213429,549
1506084213437,536
1506084213445,524
1506084213453,512
1506084213462,500
1506084213470,492
1506084213478,482
1506084213487,475
1506084213495,470
1506084213503,466
1506084213511,466
1506084213519,464
1506084213527,464
1506084213531,466
1506084213540,467
1506084213548,470
1506084213556,472
1506084213564,476
1506084213572,479
1506084213581,483
1506084213589,488
1506084213597,489
1506084213605,494
1506084213613,498
1506084213621,500
1506084213629,505
1506084213638,507
1506084213647,510
1506084213655,512
1506084213663,513
1506084213671,514
1506084213679,513
1506084213687,514
1506084213692,513
1506084213700,511
1506084213708,511
1506084213716,507
1506084213725,506
1506084213733,502
1506084213741,499
1506084213749,497
1506084213757,494
1506084213765,493
1506084213773,491
1506084213782,488
1506084213790,488
1506084213798,485
1506084213806,485
1506084213814,484
1506084213822,483
1506084213831,485
1506084213839,483
1506084213847,484
1506084213851,486
1506084213859,485
1506084213867,488
1506084213876,488
1506084213884,491
1506084213892,491
1506084213900,492
1506084213908,495
1506084213916,496
1506084213925,497
1506084213933,498
1506084213941,498
1506084213949,499
1506084213957,499
1506084213966,500
1506084213974,501
1506084213982,500
1506084213991,501
1506084213999,500
1506084214007,500
1506084214011,501
1506084214019,498
1506084214027,500
1506084214035,498
1506084214044,496
1506084214052,496
1506084214060,494
1506084214068,494
1506084214076,493
1506084214084,497
1506084214092,498
1506084214100,500
1506084214109,507
1506084214118,514
1506084214126,525
1506084214134,539
1506084214142,552
1506084214150,568
1506084214159,583
1506084214166,598
1506084214172,610
1506084214179,621
1506084214188,631
1506084214195,635
1506084214204,639
1506084214211,638
1506084214220,635
1506084214228,628
1506084214236,617
1506084214244,606
1506084214252,595
1506084214260,582
1506084214269,569
1506084214277,554
1506084214285,545
1506084214293,533
1506084214301,524
1506084214310,516
1506084214318,506
1506084214326,499
1506084214334,495
1506084214338,491
1506084214347,490
1506084214355,489
1506084214363,489
1506084214371,494
1506084214379,494
1506084214388,494
1506084214396,491
1506084214404,488
1506084214412,488
1506084214420,488
1506084214429,491
1506084214436,492
1506084214445,494
1506084214453,496
1506084214461,497
1506084214469,500
1506084214477,501
1506084214485,503
1506084214493,506
1506084214498,507
1506084214506,509
1506084214514,509
1506084214523,510
1506084214531,511
1506084214540,509
1506084214547,509
1506084214555,508
1506084214563,507
1506084214572,506
1506084214580,502
1506084214588,501
1506084214596,499
1506084214604,496
1506084214613,495
1506084214620,492
1506084214629,491
1506084214637,489
1506084214645,487
1506084214653,487
1506084214657,485
1506084214666,485
1506084214674,485
1506084214682,484
1506084214690,485
1506084214698,487
1506084214708,488
1506084214716,489
1506084214724,489
1506084214732,491
1506084214740,491
1506084214748,493
1506084214756,495
1506084214764,496
1506084214772,498
1506084214780,498
1506084214789,501
1506084214797,501
1506084214805,502
1506084214813,503
1506084214817,503
1506084214826,504
1506084214834,503
1506084214842,502
1506084214851,503
1506084214859,501
1506084214867,502
1506084214875,500
1506084214884,500
1506084214892,499
1506084214901,497
1506084214908,497
1506084214916,495
1506084214924,494
1506084214932,494
1506084214941,492
1506084214949,494
1506084214957,496
1506084214965,500
1506084214973,507
1506084214977,516
1506084214985,529
1506084214993,542
1506084215002,559
1506084215011,576
1506084215019,591
1506084215027,607
1506084215035,619
1506084215043,628
1506084215051,637
1506084215060,641
1506084215069,643
1506084215076,641
1506084215084,636
1506084215092,628
1506084215101,617
1506084215109,607
1506084215117,594
1506084215125,580
1506084215133,567
1506084215137,553
1506084215145,540
1506084215153,529
1506084215162,518
1506084215170,511
1506084215178,503
1506084215186,499
1506084215194,495
1506084215202,493
1506084215211,492
1506084215219,490
1506084215228,492
1506084215236,491
1506084215244,492
1506084215252,493
1506084215260,493
1506084215269,494
1506084215277,495
1506084215284,495
1506084215292,498
1506084215297,498
1506084215305,501
1506084215313,502
1506084215321,503
1506084215330,506
1506084215338,505
1506084215346,507
1506084215354,509
1506084215362,509
1506084215370,509
1506084215379,509
1506084215387,510
1506084215395,509
1506084215403,507
1506084215411,507
1506084215420,503
1506084215429,503
1506084215436,501
1506084215444,498
1506084215452,497
1506084215456,495
1506084215465,494
1506084215473,492
1506084215481,490
1506084215489,489
1506084215497,488
1506084215506,488
1506084215514,487
1506084215522,485
1506084215531,486
1506084215539,484
1506084215547,485
1506084215555,485
1506084215563,485
1506084215571,487
1506084215580,486
1506084215588,488
1506084215596,489
1506084215604,489
1506084215612,492
1506084215616,490
1506084215624,492
1506084215633,493
1506084215641,493
1506084215649,495
1506084215657,494
1506084215665,495
1506084215673,496
1506084215681,495
1506084215690,496
1506084215699,495
1506084215707,495
1506084215715,494
1506084215723,492
1506084215731,493
1506084215739,491
1506084215748,491
1506084215756,489
1506084215764,488
1506084215772,487
1506084215776,485
1506084215785,486
1506084215793,485
1506084215801,484
1506084215809,486
1506084215818,486
1506084215826,491
1506084215834,496
1506084215842,504
1506084215850,515
1506084215858,526
1506084215867,541
1506084215875,556
1506084215883,571
1506084215891,587
1506084215899,599
1506084215907,612
1506084215916,620
1506084215924,625
1506084215932,629
1506084215940,627
1506084215944,623
1506084215953,616
1506084215961,605
1506084215969,595
1506084215977,581
1506084215985,568
1506084215993,554
1506084216001,540
1506084216010,528
1506084216018,515
1506084216026,505
1506084216034,496
1506084216043,488
1506084216051,483
1506084216059,478
1506084216067,475
1506084216075,477
1506084216084,478
1506084216091,477
1506084216099,476
1506084216104,477
1506084216112,477
1506084216120,479
1506084216128,481
1506084216137,482
1506084216144,485
1506084216153,485
1506084216161,482
1506084216169,488
1506084216177,492
1506084216186,495
1506084216194,497
1506084216202,500
1506084216210,503
1506084216219,504
1506084216227,503
1506084216235,502
1506084216243,500
1506084216251,500
1506084216259,498
1506084216263,498
1506084216272,497
1506084216280,495
1506084216288,494
1506084216296,491
1506084216304,490
1506084216312,489
1506084216320,485
1506084216329,484
1506084216338,482
1506084216345,481
1506084216353,479
1506084216361,478
1506084216370,478
1506084216379,476
1506084216387,475
1506084216395,475
1506084216403,474
1506084216411,476
1506084216419,478
1506084216424,477
1506084216432,479
1506084216440,479
1506084216448,479
1506084216456,478
1506084216465,480
1506084216473,481
1506084216481,482
1506084216489,485
1506084216497,485
1506084216505,490
1506084216513,495
1506084216521,496
1506084216530,494
1506084216538,492
1506084216546,490
1506084216554,488
1506084216562,486
1506084216570,486
1506084216578,484
1506084216583,484
1506084216591,485
1506084216599,483
1506084216607,487
1506084216615,488
1506084216623,493
1506084216632,500
1506084216640,508
1506084216648,519
1506084216657,530
1506084216666,545
1506084216673,560
1506084216682,573
1506084216690,589
1506084216698,600
1506084216706,609
1506084216715,618
1506084216723,621
1506084216731,623
1506084216739,620
1506084216743,616
1506084216751,608
1506084216759,598
1506084216767,590
1506084216776,575
1506084216784,561
1506084216792,548
1506084216800,534
1506084216808,522
1506084216817,510
1506084216825,501
1506084216833,493
1506084216841,485
1506084216849,481
1506084216858,476
1506084216866,474
1506084216874,473
1506084216882,470
1506084216890,471
1506084216898,470
1506084216903,471
1506084216911,473
1506084216919,474
1506084216927,477
1506084216935,479
1506084216944,482
1506084216952,486
1506084216960,488
1506084216968,494
1506084216976,496
1506084216985,499
1506084216993,503
1506084217001,504
1506084217009,507
1506084217017,509
1506084217025,510
1506084217033,511
1506084217042,510
1506084217050,512
1506084217058,510
1506084217062,508
1506084217070,507
1506084217079,503
1506084217087,502
1506084217095,499
1506084217103,496
1506084217111,494
1506084217119,490
1506084217127,488
1506084217136,485
1506084217144,484
1506084217152,482
1506084217161,480
1506084217169,479
1506084217177,478
1506084217185,477
1506084217193,478
1506084217202,477
1506084217210,479
1506084217218,479
1506084217222,480
1506084217231,481
1506084217238,482
1506084217247,484
1506084217255,487
1506084217263,490
1506084217271,492
1506084217279,491
1506084217287,494
1506084217295,495
1506084217304,495
1506084217312,497
1506084217320,496
1506084217328,497
1506084217336,497
1506084217345,497
1506084217353,497
1506084217362,496
1506084217370,498
1506084217377,496
1506084217382,496
1506084217390,496
1506084217398,495
1506084217406,494
1506084217414,495
1506084217423,497
1506084217431,500
1506084217439,505
1506084217447,514
1506084217455,524
1506084217464,536
1506084217471,551
1506084217479,566
1506084217488,582
1506084217496,597
1506084217505,609
1506084217513,622
1506084217521,630
1506084217530,637
1506084217537,639
1506084217541,637
1506084217550,633
1506084217558,624
1506084217566,615
1506084217574,603
1506084217582,591
1506084217590,579
1506084217599,563
1506084217607,551
1506084217615,538
1506084217623,526
1506084217631,516
1506084217639,507
1506084217647,501
1506084217656,495
1506084217664,491
1506084217672,489
1506084217680,485
1506084217688,486
1506084217696,485
1506084217704,485
1506084217709,486
1506084217717,487
1506084217725,487
1506084217734,487
1506084217742,487
1506084217750,489
1506084217758,489
1506084217766,493
1506084217774,494
1506084217783,496
1506084217791,499
1506084217799,500
1506084217807,502
1506084217816,503
1506084217824,505
1506084217832,506
1506084217841,506
1506084217849,507
1506084217857,506
1506084217864,506
1506084217869,507
1506084217877,504
1506084217885,503
1506084217893,502
1506084217901,499
1506084217910,500
1506084217918,497
1506084217926,497
1506084217934,494
1506084217942,493
1506084217951,492
1506084217960,489
1506084217968,489
1506084217976,488
1506084217984,487
1506084217992,488
1506084218000,486
1506084218008,487
1506084218016,486
1506084218025,486
1506084218029,488
1506084218037,488
1506084218045,489
1506084218053,490
1506084218061,491
1506084218070,494
1506084218078,493
1506084218086,495
1506084218095,496
1506084218103,496
1506084218111,498
1506084218119,498
1506084218127,499
1506084218135,499
1506084218145,499
1506084218152,499
1506084218161,498
1506084218168,499
1506084218176,499
1506084218184,498
1506084218188,499
1506084218196,497
1506084218205,497
1506084218213,496
1506084218222,494
1506084218230,494
1506084218238,492
1506084218246,492
1506084218254,492
1506084218262,492
1506084218271,497
1506084218279,500
1506084218287,509
1506084218295,519
1506084218303,531
1506084218311,546
1506084218320,560
1506084218328,578
1506084218336,593
1506084218344,608
1506084218348,622
1506084218356,630
1506084218365,637
1506084218373,640
1506084218381,638
1506084218389,635
1506084218397,627
1506084218406,617
1506084218414,606
1506084218422,592
1506084218430,579
1506084218438,564
1506084218446,552
1506084218454,539
1506084218462,526
1506084218472,517
1506084218480,507
1506084218488,499
1506084218496,494
1506084218504,488
1506084218508,487
1506084218516,484
1506084218524,484
1506084218533,484
1506084218541,484
1506084218549,485
1506084218557,484
1506084218565,487
1506084218573,488
1506084218582,488
1506084218590,492
1506084218598,492
1506084218606,495
1506084218614,497
1506084218622,498
1506084218631,502
1506084218639,502
1506084218648,505
1506084218656,506
1506084218664,507
1506084218668,510
1506084218676,509
1506084218685,511
1506084218692,511
1506084218701,509
1506084218709,510
1506084218717,508
1506084218725,506
1506084218733,504
1506084218742,501
1506084218750,499
1506084218758,495
1506084218766,493
1506084218774,490
1506084218782,487
1506084218790,486
1506084218799,483
1506084218807,481
1506084218815,480
1506084218823,479
1506084218827,479
1506084218836,479
1506084218844,480
1506084218852,481
1506084218860,481
1506084218868,484
1506084218876,483
1506084218885,486
1506084218893,487
1506084218901,487
1506084218909,490
1506084218917,490
1506084218925,492
1506084218933,494
1506084218942,495
1506084218950,497
1506084218958,497
1506084218966,500
1506084218975,500
1506084218982,499
1506084218987,501
1506084218995,499
1506084219004,500
1506084219011,500
1506084219019,498
1506084219028,499
1506084219036,498
1506084219044,497
1506084219052,497
1506084219060,495
1506084219069,494
1506084219077,491
1506084219085,490
1506084219093,490
1506084219101,487
1506084219109,488
1506084219117,486
1506084219126,487
1506084219134,489
1506084219142,493
1506084219146,501
1506084219154,509
1506084219162,522
1506084219171,536
1506084219179,551
1506084219187,569
1506084219195,584
1506084219203,600
1506084219212,614
1506084219220,625
1506084219228,633
1506084219236,636
1506084219245,637
1506084219253,634
1506084219262,626
1506084219270,618
1506084219278,606
1506084219286,594
1506084219294,579
1506084219302,563
1506084219311,551
1506084219315,536
1506084219323,522
1506084219331,512
1506084219339,501
1506084219348,493
1506084219356,486
1506084219364,482
1506084219372,479
1506084219380,475
1506084219388,475
1506084219397,474
1506084219405,474
1506084219413,476
1506084219421,477
1506084219429,479
1506084219438,480
1506084219446,481
1506084219454,484
1506084219462,485
1506084219470,489
1506084219474,490
1506084219483,493
1506084219491,496
1506084219499,497
1506084219507,501
1506084219515,502
1506084219524,504
1506084219531,506
1506084219540,506
1506084219548,507
1506084219556,506
1506084219564,506
1506084219572,506
1506084219581,503
1506084219589,503
1506084219597,499
1506084219605,497
1506084219614,495
1506084219622,491
1506084219630,489
1506084219635,485
1506084219643,483
1506084219651,481
1506084219659,478
1506084219667,478
1506084219675,476
1506084219684,476
1506084219692,477
1506084219700,475
1506084219708,477
1506084219716,477
1506084219724,477
1506084219733,479
1506084219741,479
1506084219749,481
1506084219757,482
1506084219765,483
1506084219773,485
1506084219782,486
1506084219790,489
1506084219795,489
1506084219803,491
1506084219811,492
1506084219819,491
1506084219827,492
1506084219835,492
1506084219843,493
1506084219851,493
1506084219859,492
1506084219868,493
1506084219876,491
1506084219884,490
1506084219892,490
1506084219900,486
1506084219909,487
1506084219917,485
1506084219925,484
1506084219933,483
1506084219941,482
1506084219949,482
1506084219954,481
1506084219962,482
1506084219970,481
1506084219978,482
1506084219986,487
1506084219995,493
1506084220003,501
1506084220011,513
1506084220019,525
1506084220028,541
1506084220036,556
1506084220044,572
1506084220052,588
1506084220060,599
1506084220068,612
1506084220076,620
1506084220085,626
1506084220093,627
1506084220101,625
1506084220109,621
1506084220113,612
1506084220122,601
1506084220129,590
1506084220138,575
1506084220147,563
1506084220154,547
1506084220163,533
1506084220171,521
1506084220179,508
1506084220187,497
1506084220195,488
1506084220203,482
1506084220211,477
1506084220220,472
1506084220228,470
1506084220236,468
1506084220244,466
1506084220252,467
1506084220260,465
1506084220268,468
1506084220273,470
1506084220281,472
1506084220289,476
1506084220298,478
1506084220308,484
1506084220315,486
1506084220324,491
1506084220331,495
1506084220339,497
1506084220347,502
1506084220355,505
1506084220363,507
1506084220372,510
1506084220380,510
1506084220388,512
1506084220396,512
1506084220404,511
1506084220412,511
1506084220420,507
1506084220428,505
1506084220432,501
1506084220441,497
1506084220449,495
1506084220457,489
1506084220465,486
1506084220474,485
1506084220482,482
1506084220490,480
1506084220499,477
1506084220506,476
1506084220515,475
1506084220523,474
1506084220531,475
1506084220539,474
1506084220547,476
1506084220555,476
1506084220564,476
1506084220572,479
1506084220580,480
1506084220588,482
1506084220592,483
1506084220600,485
1506084220608,488
1506084220617,488
1506084220625,490
1506084220633,491
1506084220641,491
1506084220649,494
1506084220658,493
1506084220666,494
1506084220674,495
1506084220682,496
1506084220690,497
1506084220698,497
1506084220707,498
1506084220715,497
1506084220723,497
1506084220731,497
1506084220739,495
1506084220747,495
1506084220752,494
1506084220761,491
1506084220769,492
1506084220777,490
1506084220786,491
1506084220794,492
1506084220802,496
1506084220810,502
1506084220818,509
1506084220827,522
1506084220835,535
1506084220842,549
1506084220850,567
1506084220859,583
1506084220867,599
1506084220876,614
1506084220884,625
1506084220892,634
1506084220900,637
1506084220908,639
1506084220912,636
1506084220920,630
1506084220928,622
1506084220936,609
1506084220945,598
1506084220953,584
1506084220961,568
1506084220969,555
1506084220978,541
1506084220985,528
1506084220994,517
1506084221002,507
1506084221011,499
1506084221018,492
1506084221027,487
1506084221035,484
1506084221043,481
1506084221052,481
1506084221060,479
1506084221068,479
1506084221076,480
1506084221080,478
1506084221089,480
1506084221097,480
1506084221105,482
1506084221113,483
1506084221121,484
1506084221129,488
1506084221137,489
1506084221145,492
1506084221154,495
1506084221162,497
1506084221171,501
1506084221179,503
1506084221187,506
1506084221197,508
1506084221203,510
1506084221211,510
1506084221220,510
1506084221227,510
1506084221236,510
1506084221240,508
1506084221248,508
1506084221256,505
1506084221265,503
1506084221273,501
1506084221281,497
1506084221289,496
1506084221297,492
1506084221305,490
1506084221313,487
1506084221322,485
1506084221330,485
1506084221338,482
1506084221346,482
1506084221355,482
1506084221363,480
1506084221371,481
1506084221379,480
1506084221387,481
1506084221395,483
1506084221399,482
1506084221407,484
1506084221415,484
1506084221424,487
1506084221432,488
1506084221440,489
1506084221448,493
1506084221456,493
1506084221465,495
1506084221473,497
1506084221481,497
1506084221489,498
1506084221497,500
1506084221505,501
1506084221514,501
1506084221522,500
1506084221530,501
1506084221539,499
1506084221546,500
1506084221555,500
1506084221560,498
1506084221567,498
1506084221575,497
1506084221584,496
1506084221592,495
1506084221600,493
1506084221608,493
1506084221616,491
1506084221624,492
1506084221633,491
1506084221642,490
1506084221650,493
1506084221658,494
1506084221666,499
1506084221674,506
1506084221682,515
1506084221691,530
1506084221699,544
1506084221707,562
1506084221715,579
1506084221719,596
1506084221727,614
1506084221736,628
1506084221744,640
1506084221752,649
1506084221760,654
1506084221768,655
1506084221776,652
1506084221784,646
1506084221792,638
1506084221801,624
1506084221809,612
1506084221817,596
1506084221825,582
1506084221834,568
1506084221842,551
1506084221850,539
1506084221859,526
1506084221866,515
1506084221874,506
1506084221879,498
1506084221887,492
1506084221895,488
1506084221904,485
1506084221912,482
1506084221919,480
1506084221928,480
1506084221936,478
1506084221944,478
1506084221952,479
1506084221960,478
1506084221969,480
1506084221978,481
1506084221986,482
1506084221994,485
1506084222001,485
1506084222010,489
1506084222018,491
1506084222026,495
1506084222034,497
1506084222039,498
1506084222047,501
1506084222055,503
1506084222063,505
1506084222071,508
1506084222079,508
1506084222087,510
1506084222096,509
1506084222104,509
1506084222112,507
1506084222120,505
1506084222128,504
1506084222137,501
1506084222145,500
1506084222153,498
1506084222162,494
1506084222169,491
1506084222177,488
1506084222186,487
1506084222194,486
1506084222198,483
1506084222206,483
1506084222214,481
1506084222222,481
1506084222231,482
1506084222239,481
1506084222247,482
1506084222255,482
1506084222264,483
1506084222272,484
1506084222280,484
1506084222289,487
1506084222297,487
1506084222305,488
1506084222313,490
1506084222321,490
1506084222329,493
1506084222337,493
1506084222345,493
1506084222354,496
1506084222358,495
1506084222366,498
1506084222374,499
1506084222382,499
1506084222390,500
1506084222398,499
1506084222407,500
1506084222415,497
1506084222423,498
1506084222431,498
1506084222439,496
1506084222448,497
1506084222457,495
1506084222465,494
1506084222473,494
1506084222481,493
1506084222489,492
1506084222497,490
1506084222505,489
1506084222513,489
1506084222518,488
1506084222526,489
1506084222534,490
1506084222542,492
1506084222550,497
1506084222558,503
1506084222566,514
1506084222575,525
1506084222584,540
1506084222591,557
1506084222600,574
1506084222608,592
1506084222616,608
1506084222624,625
1506084222632,639
1506084222640,647
1506084222649,655
1506084222657,656
1506084222666,654
1506084222673,650
1506084222678,641
1506084222686,630
1506084222694,617
1506084222702,603
1506084222710,588
1506084222719,571
1506084222727,557
1506084222735,541
1506084222743,528
1506084222751,520
1506084222760,507
1506084222768,496
1506084222776,489
1506084222784,482
1506084222792,478
1506084222800,475
1506084222809,475
1506084222817,473
1506084222825,473
1506084222833,475
1506084222841,474
1506084222845,477
1506084222853,478
1506084222861,479
1506084222870,483
1506084222878,484
1506084222886,487
1506084222895,490
1506084222903,492
1506084222911,494
1506084222919,495
1506084222928,500
1506084222936,502
1506084222944,505
1506084222952,508
1506084222960,507
1506084222968,509
1506084222977,509
1506084222985,508
1506084222993,508
1506084223001,505
1506084223005,505
1506084223013,502
1506084223021,499
1506084223030,496
1506084223038,491
1506084223046,490
1506084223054,486
1506084223062,482
1506084223070,481
1506084223078,477
1506084223086,476
1506084223095,475
1506084223104,474
1506084223112,475
1506084223120,474
1506084223128,476
1506084223136,476
1506084223144,476
1506084223153,478
1506084223161,478
1506084223165,480
1506084223174,481
1506084223182,481
1506084223189,483
1506084223199,483
1506084223206,485
1506084223214,486
1506084223222,487
1506084223230,489
1506084223239,489
1506084223247,491
1506084223255,492
1506084223263,491
1506084223271,492
1506084223279,491
1506084223287,493
1506084223295,492
1506084223304,492
1506084223312,493
1506084223320,491
1506084223324,492
1506084223333,491
1506084223341,489
1506084223350,489
1506084223358,487
1506084223367,486
1506084223375,485
1506084223382,482
1506084223390,482
1506084223399,479
1506084223407,478
1506084223415,478
1506084223423,479
1506084223431,482
1506084223439,486
1506084223447,495
1506084223456,505
1506084223464,517
1506084223472,533
1506084223480,548
1506084223484,566
1506084223493,583
1506084223501,598
1506084223509,611
1506084223517,621
1506084223525,630
1506084223533,633
1506084223542,633
1506084223550,630
1506084223559,622
1506084223566,612
1506084223575,601
1506084223582,586
1506084223591,574
1506084223599,558
1506084223607,544
1506084223615,529
1506084223623,515
1506084223631,505
1506084223639,493
1506084223644,485
1506084223652,479
1506084223660,472
1506084223669,469
1506084223676,465
1506084223685,464
1506084223693,463
1506084223701,462
1506084223709,463
1506084223717,463
1506084223725,466
1506084223734,468
1506084223742,469
1506084223750,473
1506084223758,475
1506084223767,479
1506084223775,483
1506084223783,486
1506084223792,490
1506084223800,493
1506084223804,497
1506084223812,501
1506084223820,501
1506084223829,505
1506084223837,507
1506084223845,508
1506084223853,509
1506084223862,508
1506084223869,508
1506084223877,505
1506084223886,503
1506084223894,502
1506084223902,498
1506084223910,496
1506084223919,493
1506084223926,490
1506084223935,487
1506084223943,483
1506084223951,480
1506084223959,476
1506084223964,475
1506084223972,473
1506084223980,471
1506084223988,472
1506084223996,471
1506084224004,472
1506084224012,473
1506084224021,473
1506084224029,476
1506084224037,476
1506084224046,478
1506084224054,480
1506084224062,481
1506084224071,484
1506084224078,485
1506084224086,488
1506084224095,489
1506084224104,489
1506084224111,493
1506084224119,493
1506084224123,494
1506084224132,495
1506084224140,495
1506084224148,496
1506084224156,495
1506084224164,496
1506084224172,496
1506084224180,494
1506084224188,495
1506084224197,492
1506084224205,492
1506084224214,492
1506084224222,489
1506084224230,489
1506084224238,490
1506084224246,490
1506084224254,491
1506084224263,495
1506084224271,502
1506084224279,510
1506084224283,523
1506084224291,538
1506084224299,552
1506084224307,570
1506084224315,586
1506084224324,601
1506084224332,615
1506084224340,625
1506084224348,634
1506084224356,637
1506084224365,638
1506084224373,635
1506084224381,627
1506084224389,619
1506084224397,606
1506084224405,593
1506084224413,579
1506084224422,562
