time,value
1506085461800,492
1506085461809,492
1506085461817,491
1506085461825,492
1506085461834,492
1506085461841,492
1506085461849,493
1506085461858,492
1506085461866,493
1506085461874,493
1506085461882,493
1506085461890,494
1506085461898,494
1506085461906,496
1506085461910,497
1506085461919,501
1506085461927,505
1506085461935,510
1506085461943,519
1506085461951,527
1506085461959,534
1506085461967,543
1506085461976,550
1506085461985,557
1506085461993,561
1506085462001,564
1506085462009,566
1506085462017,565
1506085462027,566
1506085462034,563
1506085462042,559
1506085462050,555
1506085462058,549
1506085462066,545
1506085462070,539
1506085462078,533
1506085462087,529
1506085462095,523
1506085462103,518
1506085462111,512
1506085462120,508
1506085462128,504
1506085462136,500
1506085462144,497
1506085462152,492
1506085462161,490
1506085462168,488
1506085462177,484
1506085462185,483
1506085462193,482
1506085462202,481
1506085462211,480
1506085462218,479
1506085462227,480
1506085462230,480
1506085462239,480
1506085462246,482
1506085462255,482
1506085462263,485
1506085462271,485
1506085462279,486
1506085462287,489
1506085462296,490
1506085462304,492
1506085462312,492
1506085462320,491
1506085462328,492
1506085462336,490
1506085462345,491
1506085462354,489
1506085462361,489
1506085462369,490
1506085462377,487
1506085462385,488
1506085462390,487
1506085462398,486
1506085462406,487
1506085462414,486
1506085462422,487
1506085462431,486
1506085462439,487
1506085462447,496
1506085462455,498
1506085462463,499
1506085462471,498
1506085462480,497
1506085462488,498
1506085462497,500
1506085462505,498
1506085462513,500
1506085462521,500
1506085462529,500
1506085462537,497
1506085462545,500
1506085462549,502
1506085462557,508
1506085462566,515
1506085462574,520
1506085462582,529
1506085462590,536
1506085462599,543
1506085462607,550
1506085462615,554
1506085462624,557
1506085462632,560
1506085462640,560
1506085462648,560
1506085462656,556
1506085462664,554
1506085462673,549
1506085462680,543
1506085462689,541
1506085462697,534
1506085462705,529
1506085462713,526
1506085462717,520
1506085462725,514
1506085462734,507
1506085462742,503
1506085462750,496
1506085462759,493
1506085462767,489
1506085462775,484
1506085462783,482
1506085462791,479
1506085462799,477
1506085462808,478
1506085462816,476
1506085462824,477
1506085462832,477
1506085462840,477
1506085462849,477
1506085462857,479
1506085462865,481
1506085462873,481
1506085462877,480
1506085462885,482
1506085462894,482
1506085462901,484
1506085462910,484
1506085462918,484
1506085462926,486
1506085462935,487
1506085462943,488
1506085462951,490
1506085462960,489
1506085462968,490
1506085462976,487
1506085462984,487
1506085462992,487
1506085463000,486
1506085463008,487
1506085463017,485
1506085463024,486
1506085463032,485
1506085463037,486
1506085463045,487
1506085463053,486
1506085463061,488
1506085463069,488
1506085463078,488
1506085463086,490
1506085463094,489
1506085463102,490
1506085463110,491
1506085463119,491
1506085463127,492
1506085463135,490
1506085463143,491
1506085463151,490
1506085463159,490
1506085463168,492
1506085463176,491
1506085463184,493
1506085463192,496
1506085463196,499
1506085463204,505
1506085463212,510
1506085463221,517
1506085463229,523
1506085463237,531
1506085463245,539
1506085463254,544
1506085463262,551
1506085463270,555
1506085463278,558
1506085463286,561
1506085463295,560
1506085463302,560
1506085463311,559
1506085463320,557
1506085463328,555
1506085463336,549
1506085463344,546
1506085463352,539
1506085463356,533
1506085463364,529
1506085463373,522
1506085463381,518
1506085463389,515
1506085463397,509
1506085463406,504
1506085463414,501
1506085463422,497
1506085463430,493
1506085463439,489
1506085463447,486
1506085463455,482
1506085463463,484
1506085463471,483
1506085463479,480
1506085463488,481
1506085463496,479
1506085463504,480
1506085463512,480
1506085463516,479
1506085463525,481
1506085463532,481
1506085463541,483
1506085463549,483
1506085463557,483
1506085463565,485
1506085463574,487
1506085463581,489
1506085463590,489
1506085463598,488
1506085463606,488
1506085463615,486
1506085463623,486
1506085463631,486
1506085463639,485
1506085463648,486
1506085463656,484
1506085463664,486
1506085463672,486
1506085463676,485
1506085463684,487
1506085463692,486
1506085463700,487
1506085463709,488
1506085463717,487
1506085463725,490
1506085463734,490
1506085463742,492
1506085463750,491
1506085463758,491
1506085463766,492
1506085463774,492
1506085463783,492
1506085463791,495
1506085463799,493
1506085463807,493
1506085463815,491
1506085463823,490
1506085463832,492
1506085463837,491
1506085463845,491
1506085463852,488
1506085463861,489
1506085463869,490
1506085463877,488
1506085463885,490
1506085463893,491
1506085463901,495
1506085463909,499
1506085463917,505
1506085463925,518
1506085463934,523
1506085463943,529
1506085463951,540
1506085463959,543
1506085463967,545
1506085463975,547
1506085463983,549
1506085463991,550
1506085463996,549
1506085464005,548
1506085464013,546
1506085464020,543
1506085464029,540
1506085464037,536
1506085464045,534
1506085464053,529
1506085464061,525
1506085464069,523
1506085464078,518
1506085464085,516
1506085464094,512
1506085464102,509
1506085464110,507
1506085464118,505
1506085464126,504
1506085464134,502
1506085464143,501
1506085464150,500
1506085464155,498
1506085464163,498
1506085464171,496
1506085464180,494
1506085464188,494
1506085464196,492
1506085464205,492
1506085464213,491
1506085464220,491
1506085464229,492
1506085464237,491
1506085464246,494
1506085464254,492
1506085464262,492
1506085464270,493
1506085464278,491
1506085464286,493
1506085464295,492
1506085464303,491
1506085464311,492
1506085464316,492
1506085464323,493
1506085464331,493
1506085464340,493
1506085464348,494
1506085464356,493
1506085464364,496
1506085464373,495
1506085464380,495
1506085464389,497
1506085464397,495
1506085464405,496
1506085464413,497
1506085464421,497
1506085464429,498
1506085464437,498
1506085464446,500
1506085464454,499
1506085464462,500
1506085464470,507
1506085464478,506
1506085464482,505
1506085464491,504
1506085464499,507
1506085464507,505
1506085464516,500
1506085464524,498
1506085464532,496
1506085464540,494
1506085464549,493
1506085464557,491
1506085464565,492
1506085464574,492
1506085464581,493
1506085464589,502
1506085464597,504
1506085464606,506
1506085464614,510
1506085464622,511
1506085464630,515
1506085464638,519
1506085464642,527
1506085464650,532
1506085464659,537
1506085464667,544
1506085464676,548
1506085464684,552
1506085464692,555
1506085464700,557
1506085464708,558
1506085464717,556
1506085464724,555
1506085464732,551
1506085464740,547
1506085464749,544
1506085464757,539
1506085464766,535
1506085464775,530
1506085464782,525
1506085464790,523
1506085464798,518
1506085464802,515
1506085464811,512
1506085464819,508
1506085464827,506
1506085464835,502
1506085464843,501
1506085464851,499
1506085464860,497
1506085464868,497
1506085464876,495
1506085464885,496
1506085464892,496
1506085464901,495
1506085464909,496
1506085464918,496
1506085464926,498
1506085464934,499
1506085464942,500
1506085464949,503
1506085464957,501
1506085464962,504
1506085464971,504
1506085464978,504
1506085464987,506
1506085464995,504
1506085465003,505
1506085465011,506
1506085465019,506
1506085465028,507
1506085465036,505
1506085465044,506
1506085465052,505
1506085465060,503
1506085465068,505
1506085465077,502
1506085465085,503
1506085465093,502
1506085465102,500
1506085465109,501
1506085465117,499
1506085465122,500
1506085465130,499
1506085465138,499
1506085465146,500
1506085465155,499
1506085465162,499
1506085465171,499
1506085465179,498
1506085465187,499
1506085465195,498
1506085465204,497
1506085465212,497
1506085465221,496
1506085465229,497
1506085465237,496
1506085465245,499
1506085465253,501
1506085465261,503
1506085465269,509
1506085465278,514
1506085465282,522
1506085465290,529
1506085465298,535
1506085465306,543
1506085465314,547
1506085465322,553
1506085465331,556
1506085465339,558
1506085465347,560
1506085465355,557
1506085465363,557
1506085465371,554
1506085465380,549
1506085465388,547
1506085465396,541
1506085465404,537
1506085465412,533
1506085465421,528
1506085465429,525
1506085465437,519
1506085465441,515
1506085465449,511
1506085465457,506
1506085465466,504
1506085465474,499
1506085465482,497
1506085465490,495
1506085465498,492
1506085465507,491
1506085465515,488
1506085465523,488
1506085465531,487
1506085465539,486
1506085465547,487
1506085465556,486
1506085465564,488
1506085465572,488
1506085465580,488
1506085465588,490
1506085465596,490
1506085465600,493
1506085465610,493
1506085465617,492
1506085465626,495
1506085465634,494
1506085465642,495
1506085465650,496
1506085465658,495
1506085465667,496
1506085465675,494
1506085465683,494
1506085465691,494
1506085465699,492
1506085465707,492
1506085465715,491
1506085465723,490
1506085465732,490
1506085465740,489
1506085465748,491
1506085465756,489
1506085465760,489
1506085465769,490
1506085465777,489
1506085465786,490
1506085465794,489
1506085465802,490
1506085465810,491
1506085465818,489
1506085465826,491
1506085465835,489
1506085465843,490
1506085465851,492
1506085465859,492
1506085465867,496
1506085465876,499
1506085465884,504
1506085465892,510
1506085465900,516
1506085465908,525
1506085465916,531
1506085465920,540
1506085465929,548
1506085465937,552
1506085465945,558
1506085465953,561
1506085465962,564
1506085465970,566
1506085465978,565
1506085465986,565
1506085465994,562
1506085466002,560
1506085466011,557
1506085466019,552
1506085466027,549
1506085466035,544
1506085466043,539
1506085466052,535
1506085466060,531
1506085466068,527
1506085466076,522
1506085466080,519
1506085466088,514
1506085466096,509
1506085466104,506
1506085466112,501
1506085466120,498
1506085466129,496
1506085466137,491
1506085466145,490
1506085466153,488
1506085466161,487
1506085466170,487
1506085466179,485
1506085466187,486
1506085466195,486
1506085466203,486
1506085466211,487
1506085466219,486
1506085466227,489
1506085466235,488
1506085466240,489
1506085466248,491
1506085466256,490
1506085466265,493
1506085466273,492
1506085466281,493
1506085466289,494
1506085466297,493
1506085466305,495
1506085466314,495
1506085466322,497
1506085466330,496
1506085466338,493
1506085466346,495
1506085466355,493
1506085466363,492
1506085466371,492
1506085466379,490
1506085466387,491
1506085466395,489
1506085466399,489
1506085466408,490
1506085466416,487
1506085466424,489
1506085466433,488
1506085466441,488
1506085466449,489
1506085466457,487
1506085466465,488
1506085466473,489
1506085466481,489
1506085466489,492
1506085466497,493
1506085466506,499
1506085466514,502
1506085466522,509
1506085466531,518
1506085466538,524
1506085466547,534
1506085466556,542
1506085466560,549
1506085466568,557
1506085466576,561
1506085466584,565
1506085466592,567
1506085466600,567
1506085466608,568
1506085466617,564
1506085466625,561
1506085466633,556
1506085466641,551
1506085466650,547
1506085466658,540
1506085466666,535
1506085466675,529
1506085466682,524
1506085466691,518
1506085466699,512
1506085466707,509
1506085466715,504
1506085466723,500
1506085466728,498
1506085466736,493
1506085466744,491
1506085466752,488
1506085466760,486
1506085466768,485
1506085466776,482
1506085466784,481
1506085466792,481
1506085466800,481
1506085466809,482
1506085466818,482
1506085466826,484
1506085466834,484
1506085466842,485
1506085466851,488
1506085466858,487
1506085466867,490
1506085466875,491
1506085466883,491
1506085466887,493
1506085466895,493
1506085466904,494
1506085466912,495
1506085466920,495
1506085466928,497
1506085466936,496
1506085466944,497
1506085466952,497
1506085466960,496
1506085466968,497
1506085466977,495
1506085466985,496
1506085466993,494
1506085467002,494
1506085467010,494
1506085467019,492
1506085467027,493
1506085467035,492
1506085467043,492
1506085467047,494
1506085467056,491
1506085467065,491
1506085467071,491
1506085467081,491
1506085467088,492
1506085467097,492
1506085467105,493
1506085467113,493
1506085467121,494
1506085467129,496
1506085467137,498
1506085467145,503
1506085467154,508
1506085467162,515
1506085467170,524
1506085467178,531
1506085467186,540
1506085467194,548
1506085467202,555
1506085467207,563
1506085467215,566
1506085467223,571
1506085467231,573
1506085467239,573
1506085467247,573
1506085467256,569
1506085467264,567
1506085467272,563
1506085467280,558
1506085467289,554
1506085467297,548
1506085467305,543
1506085467313,537
1506085467321,531
1506085467329,528
1506085467337,522
1506085467345,518
1506085467354,514
1506085467362,508
1506085467366,506
1506085467374,501
1506085467383,499
1506085467391,496
1506085467399,494
1506085467407,493
1506085467416,491
1506085467424,491
1506085467433,491
1506085467441,491
1506085467449,493
1506085467457,493
1506085467465,495
1506085467474,497
1506085467481,497
1506085467489,499
1506085467497,499
1506085467505,501
1506085467514,502
1506085467521,502
1506085467526,505
1506085467534,504
1506085467542,506
1506085467550,507
1506085467559,506
1506085467567,507
1506085467575,506
1506085467583,507
1506085467592,507
1506085467601,506
1506085467609,507
1506085467617,505
1506085467624,506
1506085467632,506
1506085467641,504
1506085467649,506
1506085467657,503
1506085467665,504
1506085467674,504
1506085467681,502
1506085467685,502
1506085467694,501
1506085467702,502
1506085467710,501
1506085467718,500
1506085467726,501
1506085467735,500
1506085467743,502
1506085467751,502
1506085467759,501
1506085467767,503
1506085467776,503
1506085467784,506
1506085467793,510
1506085467800,514
1506085467808,521
1506085467816,528
1506085467824,536
1506085467832,544
1506085467841,551
1506085467846,560
1506085467854,564
1506085467862,569
1506085467870,574
1506085467878,575
1506085467886,576
1506085467895,574
1506085467903,573
1506085467911,569
1506085467919,564
1506085467927,561
1506085467935,554
1506085467943,549
1506085467952,544
1506085467960,537
1506085467968,533
1506085467977,527
1506085467984,522
1506085467994,518
1506085468002,512
1506085468005,509
1506085468014,503
1506085468022,501
1506085468030,497
1506085468038,493
1506085468046,492
1506085468055,489
1506085468062,488
1506085468071,488
1506085468079,488
1506085468087,490
1506085468095,491
1506085468103,494
1506085468112,496
1506085468120,497
1506085468128,503
1506085468136,503
1506085468144,506
1506085468153,508
1506085468161,507
1506085468165,509
1506085468173,509
1506085468181,510
1506085468189,510
1506085468197,507
1506085468205,507
1506085468214,504
1506085468222,503
1506085468231,503
1506085468239,501
1506085468247,502
1506085468256,498
1506085468263,497
1506085468272,496
1506085468280,494
1506085468288,494
1506085468296,492
1506085468304,492
1506085468312,492
1506085468320,490
1506085468325,491
1506085468333,490
1506085468341,491
1506085468349,491
1506085468358,490
1506085468366,491
1506085468374,490
1506085468382,491
1506085468390,493
1506085468398,494
1506085468406,500
1506085468414,503
1506085468422,510
1506085468432,518
1506085468440,524
1506085468448,533
1506085468456,539
1506085468464,546
1506085468472,552
1506085468480,554
1506085468488,558
1506085468493,558
1506085468501,557
1506085468509,555
1506085468517,550
1506085468525,548
1506085468534,543
1506085468541,538
1506085468550,533
1506085468558,526
1506085468566,522
1506085468574,516
1506085468582,510
1506085468590,506
1506085468599,500
1506085468607,496
1506085468616,490
1506085468624,486
1506085468632,481
1506085468640,476
1506085468648,474
1506085468652,470
1506085468660,465
1506085468668,463
1506085468676,457
1506085468685,457
1506085468693,456
1506085468701,456
1506085468709,457
1506085468717,457
1506085468726,460
1506085468734,460
1506085468742,464
1506085468751,468
1506085468759,469
1506085468767,473
1506085468776,475
1506085468784,477
1506085468792,480
1506085468800,481
1506085468808,484
1506085468812,484
1506085468820,485
1506085468828,486
1506085468837,483
1506085468845,485
1506085468853,483
1506085468861,482
1506085468869,482
1506085468877,480
1506085468886,480
1506085468894,479
1506085468902,478
1506085468910,478
1506085468918,476
1506085468927,476
1506085468935,474
1506085468943,472
1506085468951,473
1506085468959,470
1506085468967,470
1506085468972,469
1506085468980,466
1506085468988,465
1506085468996,462
1506085469004,463
1506085469012,463
1506085469020,466
1506085469029,469
1506085469037,471
1506085469045,476
1506085469054,478
1506085469061,482
1506085469070,487
1506085469078,489
1506085469086,494
1506085469095,497
1506085469103,500
1506085469111,502
1506085469119,501
1506085469127,503
1506085469131,502
1506085469139,504
1506085469148,507
1506085469156,505
1506085469164,508
1506085469172,508
1506085469180,508
1506085469188,510
1506085469196,510
1506085469205,512
1506085469213,515
1506085469221,520
1506085469229,528
1506085469237,534
1506085469246,543
1506085469254,549
1506085469262,552
1506085469270,558
1506085469278,558
1506085469286,558
1506085469291,557
1506085469299,554
1506085469307,552
1506085469315,549
1506085469323,548
1506085469331,546
1506085469340,544
1506085469348,544
1506085469356,539
1506085469364,535
1506085469372,529
1506085469381,521
1506085469389,515
1506085469397,507
1506085469405,499
1506085469413,492
1506085469421,485
1506085469430,478
1506085469438,469
1506085469446,464
1506085469450,460
1506085469458,455
1506085469466,456
1506085469475,454
1506085469483,456
1506085469491,458
1506085469499,460
1506085469507,465
1506085469516,467
1506085469524,472
1506085469532,477
1506085469540,480
1506085469548,485
1506085469556,487
1506085469565,490
1506085469573,491
1506085469582,491
1506085469589,494
1506085469598,492
1506085469607,492
1506085469612,492
1506085469620,490
1506085469627,491
1506085469636,489
1506085469643,489
1506085469652,490
1506085469660,493
1506085469668,497
1506085469676,501
1506085469684,508
1506085469692,515
1506085469701,521
1506085469709,531
1506085469717,536
1506085469725,543
1506085469733,548
1506085469742,550
1506085469749,554
1506085469758,555
1506085469766,556
1506085469770,555
1506085469780,552
1506085469788,551
1506085469796,546
1506085469804,544
1506085469812,540
1506085469821,535
1506085469828,533
1506085469837,527
1506085469844,522
1506085469853,517
1506085469861,513
1506085469869,510
1506085469877,505
1506085469885,501
1506085469894,498
1506085469902,494
1506085469910,493
1506085469918,489
1506085469926,488
1506085469930,488
1506085469939,486
1506085469947,488
1506085469955,488
1506085469964,490
1506085469972,491
1506085469980,491
1506085469988,493
1506085469996,493
1506085470005,494
1506085470012,496
1506085470020,494
1506085470029,496
1506085470037,495
1506085470045,495
1506085470053,496
1506085470062,495
1506085470070,497
1506085470078,496
1506085470086,497
1506085470094,496
1506085470098,496
1506085470106,496
1506085470115,493
1506085470122,493
1506085470131,493
1506085470139,491
1506085470147,492
1506085470155,491
1506085470164,491
1506085470171,491
1506085470180,490
1506085470188,491
1506085470196,490
1506085470204,491
1506085470212,492
1506085470220,491
1506085470229,493
1506085470237,492
1506085470245,492
1506085470253,494
1506085470257,493
1506085470266,495
1506085470274,496
1506085470282,498
1506085470290,501
1506085470299,503
1506085470306,510
1506085470315,515
1506085470323,522
1506085470331,530
1506085470341,535
1506085470348,541
1506085470357,547
1506085470365,551
1506085470373,554
1506085470381,556
1506085470389,556
1506085470397,554
1506085470405,553
1506085470413,551
1506085470417,546
1506085470426,542
1506085470434,537
1506085470442,531
1506085470450,527
1506085470458,521
1506085470466,518
1506085470475,514
1506085470483,510
1506085470491,507
1506085470499,502
1506085470508,500
1506085470516,496
1506085470524,494
1506085470533,493
1506085470541,489
1506085470549,489
1506085470557,488
1506085470565,487
1506085470573,487
1506085470577,487
1506085470586,490
1506085470594,489
1506085470602,490
1506085470610,492
1506085470618,491
1506085470626,494
1506085470635,495
1506085470643,496
1506085470651,498
1506085470659,497
1506085470667,500
1506085470675,500
1506085470684,503
1506085470692,502
1506085470700,499
1506085470708,500
1506085470716,499
1506085470724,497
1506085470732,497
1506085470737,495
1506085470745,495
1506085470753,494
1506085470761,494
1506085470769,494
1506085470778,492
1506085470786,494
1506085470794,492
1506085470802,492
1506085470810,493
1506085470819,492
1506085470827,493
1506085470835,493
1506085470843,492
1506085470851,493
1506085470860,492
1506085470868,494
1506085470876,495
1506085470884,500
1506085470892,505
1506085470896,508
1506085470904,515
1506085470913,521
1506085470921,528
1506085470929,535
1506085470937,541
1506085470945,547
1506085470954,551
1506085470962,554
1506085470970,556
1506085470978,555
1506085470986,556
1506085470995,553
1506085471003,550
1506085471011,547
1506085471019,541
1506085471027,537
1506085471035,533
1506085471043,527
1506085471052,524
1506085471056,519
1506085471064,516
1506085471072,513
1506085471080,509
1506085471089,508
1506085471098,502
1506085471106,500
1506085471114,496
1506085471122,493
1506085471130,492
1506085471139,488
1506085471147,487
1506085471155,487
1506085471163,486
1506085471171,487
1506085471180,487
1506085471188,488
1506085471196,490
1506085471204,490
1506085471212,492
1506085471216,491
1506085471224,493
1506085471232,495
1506085471241,494
1506085471249,496
1506085471257,495
1506085471265,496
1506085471274,496
1506085471281,496
1506085471289,497
1506085471298,496
1506085471306,498
1506085471314,498
1506085471323,497
1506085471331,499
1506085471339,497
1506085471347,496
1506085471355,496
1506085471363,494
1506085471371,495
1506085471375,497
1506085471384,501
1506085471392,500
1506085471400,499
1506085471409,498
1506085471417,495
1506085471425,495
1506085471434,495
1506085471441,495
1506085471450,498
1506085471458,499
1506085471466,503
1506085471474,507
1506085471482,513
1506085471490,521
1506085471499,527
1506085471506,536
1506085471516,542
1506085471524,547
1506085471532,554
1506085471536,556
1506085471544,559
1506085471552,560
1506085471560,560
1506085471568,558
1506085471577,555
1506085471585,552
1506085471593,548
1506085471601,543
1506085471609,540
1506085471617,533
1506085471625,528
1506085471634,523
1506085471643,518
1506085471650,514
1506085471658,509
1506085471667,505
1506085471675,502
1506085471683,498
1506085471691,497
1506085471695,493
1506085471704,494
1506085471712,491
1506085471720,488
1506085471728,491
1506085471736,495
1506085471744,496
1506085471753,497
1506085471760,496
1506085471769,498
1506085471777,498
1506085471786,502
1506085471794,503
1506085471802,504
1506085471810,506
1506085471819,505
1506085471827,504
1506085471835,506
1506085471843,503
1506085471851,504
1506085471859,502
1506085471863,501
1506085471871,499
1506085471879,496
1506085471887,491
1506085471896,486
1506085471904,483
1506085471913,481
1506085471921,478
1506085471929,479
1506085471937,478
1506085471945,479
1506085471953,481
1506085471961,482
1506085471970,485
1506085471978,485
1506085471986,488
1506085471994,489
1506085472002,492
1506085472011,494
1506085472018,493
1506085472023,495
1506085472031,496
1506085472039,496
1506085472047,498
1506085472055,496
1506085472064,496
1506085472072,498
1506085472080,499
1506085472088,504
1506085472096,506
1506085472104,512
1506085472113,520
1506085472122,525
1506085472130,535
1506085472138,540
1506085472146,547
1506085472154,554
1506085472162,557
1506085472170,561
1506085472179,562
1506085472183,563
1506085472191,563
1506085472199,561
1506085472207,559
1506085472216,556
1506085472224,551
1506085472232,547
1506085472240,541
1506085472248,537
1506085472257,532
1506085472265,527
1506085472273,523
1506085472281,518
1506085472289,514
1506085472298,509
1506085472306,506
1506085472314,503
1506085472322,499
1506085472330,497
1506085472338,493
1506085472343,491
1506085472351,490
1506085472359,487
1506085472367,487
1506085472376,486
1506085472383,488
1506085472392,488
1506085472400,488
1506085472408,491
1506085472416,491
1506085472424,493
1506085472433,495
1506085472440,493
1506085472449,495
1506085472457,494
1506085472465,494
1506085472473,496
1506085472481,496
1506085472489,497
1506085472498,496
1506085472502,497
1506085472510,497
1506085472518,496
1506085472527,498
1506085472536,496
1506085472544,495
1506085472552,495
1506085472560,493
1506085472568,494
1506085472576,493
1506085472584,493
1506085472592,493
1506085472601,493
1506085472608,494
1506085472617,493
1506085472625,493
1506085472634,495
1506085472641,494
1506085472649,496
1506085472657,496
1506085472662,495
1506085472671,495
1506085472678,494
1506085472688,496
1506085472695,496
1506085472704,496
1506085472711,500
1506085472720,500
1506085472728,506
1506085472736,509
1506085472744,514
1506085472752,522
1506085472760,528
1506085472768,537
1506085472776,544
1506085472785,552
1506085472793,559
1506085472801,563
1506085472810,567
1506085472818,568
1506085472822,568
1506085472830,568
1506085472839,566
1506085472847,564
1506085472855,560
1506085472864,556
1506085472872,551
1506085472879,544
1506085472888,540
1506085472896,534
1506085472904,528
1506085472912,523
1506085472920,516
1506085472928,513
1506085472936,508
1506085472944,504
1506085472952,503
1506085472961,502
1506085472970,501
1506085472978,497
1506085472982,493
1506085472990,491
1506085472998,487
1506085473006,488
1506085473014,486
1506085473023,486
1506085473031,488
1506085473039,489
1506085473048,491
1506085473056,492
1506085473063,494
1506085473072,504
1506085473080,506
1506085473088,508
1506085473096,509
1506085473104,509
1506085473112,512
1506085473121,510
1506085473129,513
1506085473137,510
1506085473141,507
1506085473149,504
1506085473157,499
1506085473165,498
1506085473174,496
1506085473182,494
1506085473190,493
1506085473198,491
1506085473207,492
1506085473215,491
1506085473223,493
1506085473231,495
1506085473240,495
1506085473248,496
1506085473256,496
1506085473264,497
1506085473272,499
1506085473280,498
1506085473288,499
1506085473296,499
1506085473301,498
1506085473309,499
1506085473317,498
1506085473325,499
1506085473333,499
1506085473342,500
1506085473350,504
1506085473359,507
1506085473367,513
1506085473376,520
1506085473383,526
1506085473392,536
1506085473400,544
1506085473408,552
1506085473416,561
1506085473424,567
1506085473432,570
1506085473440,574
1506085473448,575
1506085473457,573
1506085473461,570
1506085473469,568
1506085473477,562
1506085473485,559
1506085473493,551
1506085473501,545
1506085473509,539
1506085473518,531
1506085473526,526
1506085473534,520
1506085473542,516
1506085473551,513
1506085473560,508
1506085473569,508
1506085473576,506
1506085473584,506
1506085473592,508
1506085473600,502
1506085473608,497
1506085473616,492
1506085473620,487
1506085473628,485
1506085473637,483
1506085473645,483
1506085473653,484
1506085473661,484
1506085473669,486
1506085473678,486
1506085473686,490
1506085473694,492
1506085473703,492
1506085473711,496
1506085473719,496
1506085473727,498
1506085473735,499
1506085473743,499
1506085473752,501
1506085473760,500
1506085473767,500
1506085473776,499
1506085473780,497
1506085473788,499
1506085473797,496
1506085473805,496
1506085473813,496
1506085473822,495
1506085473830,495
1506085473838,494
1506085473846,495
1506085473854,495
1506085473862,495
1506085473870,495
1506085473878,493
1506085473887,494
1506085473895,493
1506085473903,491
1506085473912,492
1506085473919,491
1506085473928,492
1506085473936,494
1506085473944,496
1506085473948,501
1506085473956,505
1506085473964,513
1506085473973,521
1506085473981,529
1506085473989,538
1506085473998,545
1506085474006,553
1506085474014,560
1506085474022,564
1506085474031,569
1506085474038,569
1506085474046,570
1506085474055,568
1506085474063,566
1506085474071,565
1506085474079,559
1506085474087,554
1506085474095,549
1506085474104,541
1506085474108,536
1506085474116,529
1506085474124,523
1506085474132,517
1506085474140,511
1506085474149,507
1506085474157,503
1506085474165,500
1506085474174,497
1506085474182,492
1506085474190,492
1506085474198,488
1506085474206,486
1506085474214,486
1506085474222,485
1506085474230,485
1506085474239,485
1506085474247,486
1506085474255,487
1506085474264,489
1506085474267,491
1506085474276,492
1506085474283,494
1506085474292,495
1506085474301,494
1506085474309,496
1506085474317,496
1506085474325,496
1506085474334,496
1506085474342,494
1506085474350,495
1506085474358,493
1506085474366,495
1506085474374,495
1506085474383,493
1506085474391,494
1506085474399,493
1506085474407,493
1506085474415,493
1506085474423,492
1506085474427,493
1506085474436,492
1506085474444,492
1506085474452,492
1506085474460,491
1506085474468,494
1506085474476,494
1506085474485,495
1506085474493,496
1506085474501,495
1506085474509,496
1506085474518,496
1506085474526,497
1506085474534,499
1506085474542,502
1506085474550,509
1506085474558,514
1506085474567,523
1506085474575,534
1506085474583,541
1506085474587,551
1506085474595,556
1506085474603,561
1506085474611,565
1506085474619,567
1506085474628,569
1506085474636,568
1506085474644,566
1506085474652,564
1506085474660,557
1506085474669,555
1506085474677,549
1506085474685,544
1506085474694,541
1506085474702,533
1506085474710,529
1506085474718,521
1506085474726,515
1506085474734,511
1506085474742,506
1506085474746,502
1506085474755,497
1506085474763,494
1506085474771,492
1506085474780,489
1506085474788,488
1506085474796,486
1506085474804,485
1506085474812,485
1506085474821,483
1506085474829,484
1506085474837,484
1506085474845,484
1506085474853,486
1506085474862,486
1506085474870,489
1506085474878,488
1506085474886,489
1506085474894,490
1506085474902,489
1506085474906,491
1506085474915,491
1506085474922,491
1506085474931,492
1506085474939,491
1506085474947,492
1506085474956,491
1506085474964,491
1506085474972,491
1506085474980,489
1506085474988,491
1506085474996,490
1506085475005,489
1506085475013,491
1506085475022,490
1506085475030,491
1506085475038,491
1506085475046,491
1506085475054,493
1506085475062,491
1506085475067,493
1506085475075,493
1506085475083,493
1506085475091,494
1506085475099,492
1506085475107,493
1506085475116,494
1506085475124,494
1506085475132,495
1506085475140,495
1506085475148,498
1506085475157,501
1506085475165,505
1506085475173,512
1506085475181,519
1506085475189,530
1506085475197,540
1506085475205,548
1506085475214,558
1506085475222,565
1506085475226,571
1506085475234,576
1506085475242,578
1506085475250,580
1506085475258,578
1506085475266,577
1506085475275,574
1506085475283,570
1506085475291,567
1506085475299,559
1506085475307,554
1506085475316,548
1506085475324,541
1506085475332,535
1506085475340,528
1506085475349,522
1506085475357,517
1506085475365,511
1506085475374,507
1506085475382,501
1506085475387,500
1506085475394,497
1506085475402,494
1506085475411,493
1506085475419,489
1506085475427,488
1506085475435,486
1506085475443,484
1506085475451,485
1506085475459,483
1506085475467,485
1506085475476,485
1506085475484,485
1506085475493,489
1506085475501,488
1506085475509,490
1506085475517,492
1506085475525,492
1506085475534,493
1506085475541,493
1506085475546,495
1506085475554,495
1506085475563,495
1506085475570,496
1506085475578,495
1506085475587,496
1506085475594,498
1506085475603,496
1506085475611,497
1506085475619,496
1506085475627,496
1506085475636,495
1506085475644,493
1506085475652,494
1506085475660,492
1506085475668,492
1506085475677,491
1506085475685,490
1506085475693,492
1506085475701,492
1506085475709,494
1506085475714,495
1506085475723,494
1506085475730,495
1506085475738,494
1506085475747,494
1506085475755,495
1506085475763,494
1506085475771,495
1506085475779,494
1506085475787,495
1506085475795,497
1506085475803,496
1506085475812,500
1506085475820,503
1506085475828,509
1506085475836,516
1506085475844,524
1506085475853,533
1506085475861,540
1506085475869,551
1506085475873,559
1506085475881,564
1506085475890,572
1506085475898,575
1506085475906,578
1506085475916,579
1506085475922,578
1506085475930,576
1506085475939,572
1506085475947,568
1506085475955,563
1506085475964,557
1506085475972,552
1506085475979,544
1506085475988,539
1506085475996,533
1506085476004,527
1506085476012,523
1506085476020,518
1506085476028,513
1506085476033,510
1506085476041,505
1506085476049,503
1506085476057,499
1506085476065,497
1506085476075,495
1506085476083,492
1506085476090,492
1506085476099,490
1506085476107,490
1506085476115,491
1506085476123,491
1506085476131,491
1506085476139,492
1506085476147,494
1506085476156,495
1506085476163,495
1506085476172,497
1506085476179,496
1506085476188,498
1506085476192,499
1506085476200,498
1506085476209,500
1506085476217,499
1506085476226,499
1506085476234,500
1506085476242,498
1506085476250,499
1506085476258,497
1506085476268,497
1506085476275,497
1506085476284,496
1506085476291,497
1506085476301,496
1506085476308,496
1506085476316,497
1506085476324,499
1506085476332,498
1506085476340,496
1506085476348,496
1506085476352,496
1506085476361,495
1506085476369,496
1506085476377,496
1506085476385,496
1506085476394,496
1506085476401,496
1506085476409,497
1506085476418,497
1506085476426,497
1506085476435,499
1506085476443,499
1506085476451,502
1506085476458,506
1506085476467,511
1506085476475,519
1506085476484,525
1506085476492,535
1506085476500,543
1506085476508,552
1506085476512,561
1506085476521,567
1506085476529,574
1506085476537,577
1506085476545,579
1506085476554,579
1506085476561,576
1506085476570,575
1506085476578,571
1506085476586,566
1506085476594,561
1506085476602,554
1506085476610,549
1506085476618,542
1506085476628,535
1506085476637,530
1506085476643,524
1506085476652,519
1506085476660,514
1506085476667,509
1506085476672,506
1506085476680,499
1506085476688,497
1506085476696,493
1506085476704,490
1506085476713,488
1506085476721,486
1506085476729,486
1506085476737,486
1506085476745,485
1506085476754,487
1506085476762,486
1506085476770,488
1506085476778,488
1506085476786,490
1506085476795,491
1506085476803,490
1506085476812,493
1506085476819,493
1506085476827,493
1506085476831,495
1506085476839,494
1506085476848,497
1506085476856,495
1506085476864,496
1506085476872,496
1506085476881,495
1506085476889,496
1506085476897,496
1506085476905,495
1506085476914,496
1506085476921,494
1506085476929,494
1506085476938,492
1506085476946,491
1506085476955,490
1506085476963,487
1506085476971,487
1506085476979,486
1506085476987,485
1506085476991,485
1506085476999,482
1506085477007,482
1506085477015,481
1506085477025,481
1506085477033,482
1506085477041,480
1506085477049,483
1506085477057,486
1506085477065,491
1506085477074,496
1506085477082,503
1506085477090,513
1506085477098,523
1506085477106,533
1506085477114,545
1506085477123,553
1506085477131,562
1506085477139,568
1506085477147,571
1506085477151,575
1506085477159,581
1506085477168,583
1506085477176,580
1506085477184,576
1506085477192,571
1506085477200,564
1506085477209,562
1506085477217,553
1506085477225,547
1506085477234,542
1506085477241,531
1506085477249,524
1506085477258,515
1506085477266,510
1506085477274,509
1506085477282,505
1506085477290,502
1506085477298,499
1506085477306,496
1506085477311,495
1506085477319,488
1506085477327,484
1506085477335,480
1506085477343,478
1506085477352,478
1506085477360,477
1506085477368,478
1506085477376,482
1506085477384,484
1506085477392,488
1506085477401,488
1506085477409,491
1506085477417,493
1506085477425,494
1506085477434,496
1506085477441,495
1506085477450,497
1506085477458,497
1506085477466,497
1506085477470,498
1506085477478,497
1506085477487,496
1506085477495,498
1506085477503,498
1506085477512,498
1506085477520,496
1506085477528,496
1506085477536,496
1506085477544,495
1506085477552,498
1506085477561,498
1506085477569,497
1506085477577,497
1506085477585,495
1506085477593,496
1506085477601,494
1506085477609,494
1506085477618,494
1506085477626,496
1506085477634,500
1506085477638,500
1506085477646,499
1506085477654,501
1506085477662,506
1506085477671,508
1506085477679,509
1506085477687,514
1506085477695,522
1506085477704,530
1506085477712,540
1506085477721,549
1506085477729,558
1506085477737,564
1506085477745,569
1506085477753,575
1506085477761,576
1506085477770,577
1506085477778,578
1506085477786,575
1506085477794,573
1506085477798,569
1506085477806,565
1506085477814,560
1506085477823,554
1506085477831,550
1506085477839,543
1506085477847,538
1506085477855,533
1506085477863,526
1506085477872,523
1506085477880,518
1506085477888,514
1506085477896,510
1506085477905,505
1506085477913,502
1506085477921,497
1506085477929,495
1506085477937,492
1506085477945,488
1506085477953,488
1506085477957,485
1506085477966,485
1506085477974,486
1506085477982,485
1506085477990,486
1506085477999,486
1506085478007,487
1506085478015,489
1506085478024,488
1506085478032,490
1506085478040,489
1506085478048,490
1506085478056,490
1506085478065,489
1506085478073,490
1506085478081,489
1506085478089,490
1506085478098,489
1506085478105,488
1506085478113,489
1506085478118,486
1506085478126,487
1506085478134,486
1506085478142,484
1506085478150,485
1506085478159,483
1506085478167,484
1506085478175,485
1506085478183,485
1506085478191,486
1506085478200,487
1506085478208,489
1506085478216,491
1506085478224,491
1506085478232,495
1506085478240,495
1506085478248,496
1506085478257,497
1506085478265,497
1506085478272,500
1506085478277,501
1506085478285,505
1506085478294,510
1506085478302,515
1506085478310,524
1506085478318,532
1506085478326,542
1506085478334,553
1506085478343,559
1506085478351,568
1506085478359,573
1506085478367,577
1506085478375,580
1506085478383,580
1506085478391,580
1506085478400,577
1506085478408,574
1506085478416,571
1506085478424,565
1506085478433,561
1506085478437,553
1506085478446,548
1506085478454,543
1506085478462,536
1506085478470,531
1506085478478,526
1506085478486,522
1506085478495,518
1506085478502,514
1506085478511,511
1506085478519,507
1506085478527,504
1506085478535,501
1506085478543,497
1506085478551,495
1506085478560,492
1506085478568,490
1506085478576,490
1506085478584,491
1506085478592,493
1506085478597,491
1506085478605,491
1506085478614,491
1506085478622,490
1506085478630,492
1506085478638,491
1506085478646,491
1506085478654,493
1506085478662,491
1506085478670,493
1506085478678,494
1506085478686,496
1506085478695,501
1506085478703,498
1506085478711,497
1506085478719,496
1506085478728,500
1506085478736,500
1506085478744,496
1506085478752,498
1506085478757,498
1506085478765,498
1506085478774,500
1506085478781,499
1506085478790,499
1506085478798,500
1506085478807,495
1506085478816,491
1506085478822,486
1506085478831,486
1506085478839,483
1506085478847,483
1506085478855,484
1506085478863,487
1506085478871,489
1506085478879,485
1506085478888,484
1506085478896,487
1506085478904,489
1506085478912,494
1506085478916,501
1506085478924,510
1506085478933,521
1506085478941,531
1506085478950,543
1506085478959,553
1506085478965,561
1506085478974,570
1506085478982,575
1506085478990,580
1506085478998,582
1506085479006,581
1506085479014,580
1506085479022,576
1506085479030,572
1506085479039,567
1506085479047,561
1506085479055,556
1506085479063,547
1506085479071,542
1506085479076,535
1506085479084,528
1506085479092,524
1506085479100,517
1506085479108,513
1506085479116,508
1506085479125,504
1506085479133,501
1506085479141,496
1506085479149,495
1506085479157,491
1506085479165,490
1506085479174,489
1506085479182,486
1506085479190,487
1506085479198,486
1506085479206,487
1506085479215,488
1506085479223,488
1506085479231,491
1506085479235,491
1506085479244,492
1506085479252,494
1506085479260,494
1506085479269,497
1506085479277,498
1506085479285,498
1506085479294,500
1506085479301,499
1506085479310,500
1506085479318,499
1506085479327,499
1506085479336,499
1506085479342,496
1506085479351,497
1506085479359,496
1506085479367,495
1506085479375,496
1506085479383,493
1506085479391,493
1506085479396,493
1506085479404,492
1506085479412,492
1506085479420,489
1506085479428,489
1506085479437,489
1506085479445,488
1506085479453,490
1506085479461,489
1506085479469,490
1506085479477,492
1506085479485,494
1506085479495,500
1506085479502,505
1506085479510,514
1506085479518,522
1506085479526,532
1506085479535,541
1506085479543,548
1506085479551,558
1506085479555,564
1506085479563,568
1506085479571,573
1506085479580,572
1506085479588,573
1506085479596,572
1506085479604,567
1506085479612,563
1506085479620,557
1506085479628,552
1506085479637,546
1506085479645,539
1506085479654,535
1506085479661,527
1506085479670,522
1506085479678,517
1506085479686,512
1506085479694,508
1506085479703,503
1506085479711,499
1506085479718,496
1506085479723,492
1506085479731,490
1506085479739,486
1506085479747,485
1506085479755,483
1506085479764,480
1506085479772,482
1506085479780,481
1506085479788,482
1506085479796,484
1506085479805,484
1506085479813,487
1506085479821,488
1506085479829,490
1506085479837,491
1506085479845,491
1506085479854,493
1506085479862,491
1506085479871,492
1506085479879,492
1506085479883,491
1506085479891,492
1506085479899,490
1506085479907,491
1506085479915,491
1506085479924,490
1506085479932,490
1506085479940,488
1506085479948,488
1506085479956,488
1506085479965,486
1506085479973,488
1506085479981,487
1506085479989,486
1506085479998,487
1506085480006,484
1506085480014,485
1506085480022,483
1506085480030,484
1506085480038,484
1506085480043,484
1506085480051,486
1506085480059,488
1506085480067,493
1506085480075,499
1506085480084,505
1506085480092,515
1506085480100,524
1506085480108,534
1506085480116,543
1506085480125,552
1506085480133,560
1506085480141,565
1506085480149,570
1506085480157,573
1506085480166,573
1506085480174,574
1506085480182,570
1506085480190,567
1506085480198,563
1506085480202,556
1506085480210,550
1506085480219,543
1506085480227,537
1506085480235,530
1506085480243,523
1506085480252,518
1506085480260,512
1506085480268,508
1506085480276,505
1506085480284,499
1506085480293,498
1506085480301,495
1506085480309,492
1506085480317,489
1506085480325,485
1506085480334,484
1506085480342,481
1506085480350,480
1506085480358,480
1506085480362,478
1506085480370,479
1506085480379,479
1506085480387,480
1506085480395,482
1506085480403,482
1506085480412,484
1506085480419,484
1506085480428,485
1506085480436,487
1506085480444,487
1506085480452,489
1506085480460,488
1506085480468,489
1506085480476,490
1506085480485,488
1506085480494,490
1506085480502,489
1506085480510,490
1506085480518,489
1506085480522,488
1506085480530,488
1506085480539,487
1506085480547,488
1506085480555,488
1506085480563,486
1506085480571,488
1506085480579,486
1506085480588,487
1506085480596,488
1506085480604,487
1506085480612,489
1506085480621,487
1506085480628,488
1506085480637,489
1506085480645,487
1506085480654,489
1506085480661,488
1506085480669,489
1506085480677,491
1506085480682,493
1506085480690,498
1506085480698,503
1506085480706,511
1506085480715,520
1506085480723,527
1506085480731,536
1506085480739,544
1506085480747,550
1506085480756,557
1506085480764,561
1506085480772,564
1506085480780,565
1506085480788,565
1506085480796,564
1506085480804,560
1506085480813,558
1506085480821,552
1506085480829,546
1506085480837,541
1506085480841,533
1506085480850,528
1506085480858,522
1506085480866,516
1506085480874,512
1506085480882,507
1506085480891,504
1506085480899,499
1506085480907,497
1506085480915,496
1506085480923,491
1506085480931,490
1506085480940,486
1506085480948,483
1506085480956,482
1506085480964,479
1506085480972,480
1506085480981,478
1506085480989,479
1506085480997,480
1506085481001,479
1506085481009,482
1506085481017,484
1506085481026,484
1506085481034,486
1506085481042,485
1506085481050,487
1506085481058,487
1506085481066,487
1506085481075,489
1506085481083,488
1506085481091,490
1506085481099,489
1506085481107,490
1506085481115,490
1506085481123,488
1506085481132,489
1506085481140,488
1506085481148,487
1506085481156,488
1506085481160,486
1506085481169,486
1506085481176,486
1506085481185,485
1506085481193,487
1506085481201,486
1506085481209,487
1506085481218,488
1506085481226,488
1506085481234,489
1506085481242,488
1506085481250,490
1506085481258,488
1506085481267,488
1506085481275,488
1506085481283,486
1506085481291,487
1506085481300,486
1506085481308,486
1506085481316,488
1506085481320,489
1506085481329,493
1506085481337,495
1506085481345,498
1506085481355,504
1506085481362,510
1506085481370,520
1506085481378,528
1506085481386,537
1506085481394,545
1506085481402,551
1506085481410,558
1506085481419,562
1506085481427,565
1506085481435,568
1506085481443,566
1506085481451,565
1506085481459,563
1506085481468,559
1506085481476,555
1506085481480,549
1506085481489,543
1506085481496,537
1506085481505,531
1506085481513,527
1506085481521,521
1506085481529,517
1506085481537,512
1506085481545,506
1506085481554,503
1506085481563,498
1506085481571,496
1506085481579,493
1506085481587,490
1506085481595,488
1506085481603,484
1506085481611,484
1506085481620,483
1506085481628,481
1506085481636,484
1506085481644,482
1506085481648,483
1506085481656,484
1506085481664,484
1506085481673,486
1506085481682,486
1506085481689,489
1506085481697,490
1506085481705,491
1506085481714,493
1506085481722,492
1506085481730,494
1506085481738,495
1506085481746,494
1506085481754,496
1506085481763,494
1506085481771,494
1506085481779,494
1506085481787,493
1506085481795,494
1506085481803,492
1506085481808,493
1506085481816,492
1506085481824,490
1506085481832,492
1506085481840,490
1506085481849,491
1506085481858,492
1506085481866,491
1506085481874,492
1506085481882,491
1506085481890,493
1506085481898,493
1506085481907,492
1506085481915,495
1506085481923,493
1506085481931,494
1506085481939,495
1506085481947,494
1506085481955,496
1506085481963,495
1506085481967,495
1506085481976,495
1506085481984,495
1506085481992,496
1506085482000,494
1506085482008,495
1506085482016,496
1506085482025,495
1506085482033,497
1506085482041,499
1506085482049,504
1506085482058,511
1506085482066,518
1506085482074,527
1506085482082,535
1506085482090,545
1506085482098,553
1506085482107,560
1506085482114,567
1506085482122,570
1506085482127,574
1506085482135,575
1506085482143,573
1506085482151,572
1506085482159,567
1506085482168,563
1506085482176,558
1506085482184,551
1506085482192,547
1506085482201,539
1506085482210,533
1506085482218,528
1506085482226,521
1506085482234,518
1506085482242,512
1506085482251,508
1506085482259,505
1506085482267,500
1506085482275,496
1506085482283,492
1506085482287,490
1506085482296,487
1506085482303,485
1506085482312,485
1506085482320,483
1506085482328,484
1506085482336,485
1506085482345,485
1506085482353,487
1506085482361,487
1506085482369,489
1506085482377,490
1506085482385,491
1506085482393,493
1506085482403,493
1506085482410,495
1506085482419,495
1506085482426,495
1506085482434,497
1506085482442,496
1506085482447,497
1506085482455,499
1506085482463,498
1506085482471,499
1506085482479,498
1506085482488,499
1506085482496,498
1506085482504,497
1506085482512,498
1506085482520,495
1506085482528,495
1506085482537,495
1506085482545,492
1506085482553,493
1506085482561,492
1506085482571,492
1506085482578,493
1506085482587,492
1506085482596,493
1506085482603,491
1506085482607,494
1506085482615,494
1506085482623,493
1506085482631,495
1506085482640,494
1506085482648,495
1506085482656,496
1506085482664,496
1506085482672,498
1506085482681,498
1506085482689,498
1506085482697,501
1506085482705,504
1506085482714,510
1506085482722,516
1506085482730,524
1506085482738,533
1506085482747,540
1506085482754,549
1506085482763,555
1506085482766,561
1506085482775,567
1506085482783,568
1506085482791,571
1506085482799,569
1506085482807,567
1506085482816,565
1506085482824,559
1506085482832,556
1506085482840,550
1506085482848,544
1506085482857,541
1506085482865,533
1506085482873,528
1506085482881,522
1506085482889,517
1506085482898,513
1506085482905,508
1506085482913,505
1506085482921,499
1506085482926,497
1506085482934,496
1506085482942,492
1506085482950,491
1506085482958,489
1506085482967,487
1506085482975,487
1506085482984,484
1506085482992,485
1506085483000,485
1506085483008,486
1506085483017,488
1506085483025,487
1506085483033,489
1506085483041,490
1506085483049,491
1506085483057,494
1506085483065,493
1506085483074,496
1506085483082,496
1506085483086,498
1506085483094,499
1506085483102,498
1506085483110,500
1506085483119,499
1506085483127,500
1506085483135,500
1506085483143,497
1506085483151,497
1506085483160,494
1506085483168,493
1506085483176,494
1506085483184,491
1506085483192,491
1506085483200,489
1506085483209,489
1506085483216,490
1506085483225,488
1506085483233,489
1506085483241,488
1506085483249,488
1506085483253,490
1506085483261,488
1506085483269,490
1506085483278,491
1506085483286,490
1506085483294,492
1506085483302,492
1506085483310,495
1506085483318,498
1506085483327,503
1506085483335,511
1506085483343,517
1506085483351,527
1506085483360,535
1506085483368,544
1506085483377,553
1506085483385,559
1506085483393,566
1506085483401,569
1506085483409,572
1506085483414,574
1506085483422,571
1506085483430,572
1506085483438,567
1506085483446,563
1506085483454,559
1506085483463,551
1506085483471,546
1506085483479,540
1506085483487,533
1506085483495,528
1506085483503,521
1506085483511,518
1506085483520,513
1506085483528,508
1506085483536,506
1506085483544,501
1506085483552,499
1506085483560,497
1506085483568,494
1506085483573,493
1506085483581,490
1506085483589,489
1506085483597,487
1506085483606,487
1506085483613,488
1506085483622,486
1506085483631,487
1506085483639,487
1506085483647,487
1506085483655,490
1506085483663,490
1506085483672,492
1506085483680,493
1506085483688,493
1506085483696,495
1506085483704,494
1506085483712,496
1506085483721,495
1506085483729,495
1506085483733,496
1506085483741,494
1506085483749,495
1506085483757,494
1506085483765,493
1506085483774,494
1506085483782,493
1506085483790,493
1506085483798,493
1506085483807,493
1506085483815,494
1506085483823,493
1506085483831,494
1506085483839,494
1506085483847,494
1506085483856,495
1506085483864,493
1506085483872,495
1506085483880,495
1506085483888,495
1506085483893,496
1506085483901,495
1506085483909,496
1506085483917,496
1506085483925,495
1506085483933,497
1506085483941,497
1506085483950,501
1506085483958,505
1506085483967,511
1506085483975,520
1506085483983,527
1506085483991,536
1506085483999,543
1506085484007,551
1506085484016,559
1506085484024,563
1506085484032,570
1506085484040,573
1506085484048,573
1506085484053,574
1506085484061,571
1506085484069,569
1506085484077,566
1506085484085,561
1506085484094,557
1506085484102,549
1506085484110,544
1506085484118,537
1506085484126,530
1506085484134,526
1506085484142,518
1506085484150,514
1506085484159,509
1506085484167,505
1506085484175,502
1506085484183,497
1506085484191,496
1506085484200,493
1506085484207,489
1506085484212,488
1506085484220,486
1506085484229,485
1506085484236,485
1506085484244,483
1506085484253,486
1506085484261,484
1506085484269,485
1506085484277,486
1506085484285,487
1506085484294,490
1506085484302,489
1506085484310,490
1506085484318,490
1506085484326,490
1506085484334,492
1506085484343,491
1506085484351,493
1506085484359,493
1506085484367,492
1506085484371,493
1506085484381,492
1506085484388,493
1506085484396,495
1506085484405,494
1506085484413,494
1506085484421,493
1506085484430,493
1506085484438,492
1506085484446,491
1506085484454,492
1506085484462,490
1506085484470,491
1506085484479,491
1506085484487,491
1506085484495,493
1506085484503,491
1506085484511,493
1506085484519,493
1506085484527,492
1506085484532,494
1506085484540,492
1506085484548,493
1506085484556,493
1506085484565,493
1506085484573,493
1506085484582,492
1506085484589,493
1506085484597,494
1506085484605,494
1506085484614,496
1506085484621,497
1506085484630,501
1506085484638,507
1506085484646,513
1506085484654,522
1506085484662,530
1506085484671,540
1506085484679,549
1506085484687,557
1506085484691,566
1506085484700,570
1506085484708,574
1506085484716,576
1506085484724,575
1506085484732,575
1506085484741,572
1506085484749,568
1506085484757,563
1506085484765,557
1506085484774,552
1506085484781,545
1506085484789,539
1506085484798,535
1506085484805,527
1506085484814,524
1506085484822,518
1506085484830,514
1506085484838,510
1506085484847,505
1506085484855,503
1506085484860,498
1506085484868,495
1506085484876,492
1506085484884,489
1506085484892,488
1506085484900,485
1506085484908,484
1506085484917,484
1506085484925,482
1506085484933,484
1506085484941,484
1506085484950,485
1506085484958,487
1506085484966,487
1506085484974,490
1506085484982,490
1506085484990,492
1506085484999,494
1506085485006,493
1506085485015,495
1506085485019,495
1506085485027,496
1506085485036,497
1506085485043,495
1506085485052,496
1506085485060,494
1506085485068,494
1506085485076,494
1506085485084,492
1506085485094,493
1506085485102,491
1506085485109,490
1506085485118,491
1506085485126,489
1506085485134,490
1506085485142,490
1506085485150,490
1506085485158,490
1506085485166,489
1506085485174,491
1506085485178,490
1506085485187,491
1506085485195,492
1506085485203,490
1506085485211,493
1506085485219,492
1506085485227,492
1506085485236,493
1506085485244,492
1506085485253,493
1506085485261,493
1506085485270,493
1506085485278,495
1506085485285,495
1506085485294,499
1506085485302,500
1506085485310,505
1506085485318,512
1506085485326,517
1506085485334,528
1506085485339,536
1506085485347,544
1506085485355,552
1506085485363,558
1506085485371,566
1506085485379,570
1506085485388,572
1506085485396,575
1506085485404,574
1506085485412,574
1506085485420,571
1506085485429,566
1506085485436,563
1506085485445,556
1506085485453,552
1506085485462,544
1506085485469,539
1506085485478,534
1506085485485,527
1506085485494,523
1506085485498,518
1506085485506,513
1506085485514,510
1506085485522,505
1506085485531,503
1506085485539,499
1506085485547,497
1506085485555,494
1506085485563,491
1506085485571,490
1506085485580,488
1506085485588,486
1506085485596,487
1506085485604,485
1506085485613,487
1506085485620,486
1506085485629,487
1506085485637,489
1506085485645,488
1506085485653,490
1506085485657,491
1506085485665,491
1506085485674,493
1506085485682,492
1506085485690,494
1506085485698,495
1506085485706,495
1506085485715,497
1506085485723,496
1506085485731,496
1506085485739,495
1506085485747,494
1506085485756,495
1506085485764,492
1506085485772,493
1506085485780,491
1506085485788,490
1506085485797,491
1506085485806,489
1506085485813,490
1506085485818,489
1506085485826,489
1506085485834,490
1506085485842,488
1506085485850,490
1506085485858,489
1506085485866,490
1506085485874,491
1506085485882,489
1506085485892,492
1506085485900,492
1506085485908,493
1506085485916,494
1506085485924,494
1506085485932,496
1506085485940,500
1506085485948,505
1506085485957,512
1506085485965,518
1506085485975,527
1506085485977,535
1506085485985,543
1506085485994,552
1506085486002,557
1506085486010,564
1506085486019,567
1506085486027,570
1506085486035,572
1506085486043,570
1506085486051,570
1506085486059,566
1506085486068,562
1506085486076,559
1506085486084,550
1506085486092,546
1506085486100,539
1506085486108,533
1506085486117,528
1506085486125,522
1506085486133,518
1506085486137,512
1506085486145,507
1506085486154,505
1506085486162,499
1506085486170,497
1506085486178,494
1506085486187,491
1506085486195,490
1506085486203,485
1506085486211,485
1506085486219,484
1506085486227,483
1506085486235,483
1506085486243,482
1506085486251,483
1506085486260,483
1506085486268,485
1506085486276,487
1506085486284,486
1506085486292,489
1506085486297,490
1506085486304,489
1506085486313,492
1506085486321,491
1506085486329,496
1506085486337,495
1506085486345,494
1506085486354,493
1506085486362,491
1506085486370,491
1506085486379,490
1506085486388,489
1506085486395,491
1506085486404,488
1506085486412,488
1506085486420,489
1506085486428,487
1506085486436,488
1506085486444,488
1506085486452,489
1506085486457,489
1506085486465,489
1506085486473,491
1506085486481,490
1506085486489,491
1506085486497,492
1506085486506,491
1506085486514,493
1506085486522,491
1506085486530,492
1506085486538,493
1506085486546,493
1506085486555,495
1506085486563,496
1506085486571,501
1506085486579,504
1506085486587,510
1506085486596,519
1506085486604,526
1506085486612,536
1506085486620,545
1506085486624,552
1506085486632,561
1506085486640,565
1506085486649,570
1506085486658,572
1506085486666,573
1506085486674,573
1506085486682,568
1506085486690,566
1506085486698,563
1506085486707,556
1506085486714,551
1506085486723,544
1506085486731,539
1506085486739,533
1506085486747,527
1506085486756,523
1506085486764,518
1506085486772,515
1506085486780,511
1506085486784,506
1506085486793,504
1506085486801,499
1506085486809,496
1506085486817,493
1506085486825,490
1506085486834,488
1506085486842,485
1506085486850,484
1506085486858,483
1506085486866,481
1506085486874,483
1506085486882,483
1506085486890,484
1506085486898,485
1506085486907,485
1506085486916,489
1506085486924,489
1506085486932,490
1506085486940,491
1506085486945,491
1506085486952,493
1506085486960,492
1506085486968,493
1506085486976,493
1506085486985,492
1506085486993,494
1506085487001,492
1506085487009,493
1506085487017,493
1506085487026,491
1506085487034,491
1506085487042,490
1506085487050,490
1506085487058,490
1506085487067,489
1506085487075,490
1506085487083,488
1506085487091,488
1506085487099,489
1506085487104,487
1506085487112,489
1506085487120,489
1506085487128,488
1506085487137,490
1506085487144,490
1506085487153,491
1506085487160,490
1506085487169,490
1506085487177,491
1506085487185,489
1506085487193,491
1506085487201,490
1506085487211,490
1506085487219,492
1506085487227,491
1506085487235,494
1506085487243,496
1506085487251,501
1506085487259,507
1506085487263,514
1506085487273,523
1506085487279,530
1506085487287,540
1506085487296,550
1506085487304,556
1506085487312,565
1506085487320,570
1506085487328,575
1506085487336,578
1506085487345,577
1506085487354,577
1506085487362,574
1506085487370,571
1506085487378,567
1506085487386,560
1506085487395,557
1506085487403,549
1506085487411,543
1506085487419,538
1506085487423,531
1506085487431,528
1506085487439,522
1506085487448,518
1506085487456,514
1506085487465,510
1506085487473,507
1506085487481,503
1506085487489,501
1506085487497,499
1506085487505,495
1506085487514,495
1506085487521,493
1506085487529,491
1506085487538,491
1506085487546,490
1506085487554,491
1506085487562,490
1506085487571,491
1506085487579,493
1506085487583,492
1506085487591,494
1506085487600,494
1506085487609,495
1506085487616,496
1506085487625,495
1506085487632,496
1506085487641,496
1506085487649,496
1506085487657,497
1506085487665,496
1506085487673,497
1506085487681,496
1506085487689,497
1506085487697,497
1506085487706,494
1506085487714,495
1506085487722,494
1506085487730,494
1506085487738,494
1506085487743,493
1506085487751,495
1506085487759,495
1506085487767,495
1506085487775,496
1506085487783,494
1506085487791,496
1506085487800,495
1506085487808,495
1506085487816,496
1506085487825,495
1506085487833,497
1506085487841,495
1506085487849,496
1506085487857,496
1506085487865,495
1506085487873,497
1506085487882,495
1506085487890,495
1506085487897,497
1506085487902,495
1506085487910,497
1506085487918,499
1506085487926,503
1506085487935,508
1506085487943,512
1506085487951,521
1506085487959,530
1506085487967,540
1506085487976,549
1506085487985,557
1506085487993,565
1506085488001,571
1506085488009,576
1506085488017,580
1506085488024,580
1506085488033,580
1506085488041,578
1506085488049,575
1506085488057,572
1506085488061,567
1506085488069,563
1506085488078,555
1506085488086,552
1506085488095,547
1506085488103,537
1506085488111,531
1506085488120,525
1506085488128,518
1506085488136,515
1506085488144,510
1506085488152,508
1506085488161,503
1506085488170,501
1506085488177,499
1506085488185,496
1506085488194,495
1506085488202,491
1506085488210,490
1506085488218,489
1506085488222,486
1506085488230,488
1506085488238,486
1506085488246,486
1506085488255,489
1506085488263,488
1506085488271,490
1506085488279,492
1506085488287,494
1506085488296,495
1506085488303,494
1506085488312,495
1506085488320,495
1506085488329,495
1506085488336,496
1506085488344,495
1506085488353,496
1506085488362,496
1506085488370,495
1506085488377,496
1506085488381,495
1506085488389,495
1506085488397,494
1506085488406,493
1506085488414,493
1506085488423,491
1506085488431,492
1506085488439,491
1506085488447,491
1506085488455,492
1506085488463,490
1506085488471,491
1506085488480,491
1506085488488,492
1506085488497,493
1506085488505,492
1506085488513,492
1506085488521,493
1506085488529,492
1506085488537,494
1506085488541,492
1506085488549,494
1506085488557,494
1506085488565,496
1506085488574,500
1506085488583,503
1506085488591,511
1506085488599,517
1506085488607,525
1506085488615,534
1506085488623,542
1506085488632,552
1506085488640,559
1506085488648,564
1506085488656,571
1506085488664,572
1506085488672,574
1506085488680,575
1506085488688,573
1506085488696,572
1506085488704,566
1506085488709,562
1506085488717,556
1506085488725,550
1506085488733,545
1506085488742,537
1506085488751,532
1506085488759,527
1506085488767,522
1506085488775,519
1506085488783,514
1506085488791,513
1506085488799,508
1506085488807,504
1506085488816,502
1506085488824,497
1506085488832,495
1506085488840,493
1506085488848,491
1506085488856,491
1506085488864,489
1506085488868,489
1506085488877,489
1506085488886,489
1506085488894,490
1506085488902,490
1506085488910,492
1506085488918,491
1506085488926,493
1506085488935,494
1506085488943,493
1506085488951,495
1506085488959,495
1506085488967,494
1506085488976,495
1506085488984,493
1506085488992,493
1506085489000,494
1506085489009,493
1506085489017,493
1506085489024,490
1506085489029,492
1506085489038,491
1506085489045,490
1506085489054,491
1506085489062,490
1506085489070,491
1506085489078,491
1506085489086,491
1506085489094,492
1506085489102,492
1506085489110,492
1506085489119,491
1506085489127,490
1506085489135,492
1506085489143,489
1506085489152,491
1506085489160,491
1506085489168,490
1506085489176,493
1506085489184,492
1506085489188,495
1506085489196,498
1506085489205,504
1506085489213,511
1506085489221,517
1506085489229,527
1506085489237,536
1506085489245,544
1506085489254,554
1506085489262,559
1506085489270,566
1506085489278,570
1506085489286,573
1506085489295,574
1506085489303,573
1506085489311,573
1506085489319,569
1506085489327,563
1506085489335,560
1506085489343,552
1506085489348,547
1506085489356,542
1506085489364,535
1506085489372,531
1506085489380,525
1506085489389,520
1506085489397,516
1506085489405,511
1506085489413,509
1506085489421,505
1506085489430,502
1506085489438,497
1506085489446,493
1506085489454,490
1506085489462,485
1506085489470,483
1506085489479,482
1506085489487,479
1506085489495,479
1506085489503,478
1506085489507,481
1506085489516,481
1506085489524,482
1506085489532,484
1506085489540,484
1506085489548,486
1506085489557,488
1506085489565,487
1506085489573,490
1506085489581,490
1506085489589,490
1506085489598,491
1506085489606,491
1506085489615,493
1506085489623,492
1506085489631,492
1506085489639,492
1506085489647,490
1506085489655,491
1506085489663,489
1506085489668,489
1506085489676,488
1506085489683,487
1506085489692,488
1506085489700,487
1506085489708,487
1506085489717,488
1506085489726,487
1506085489734,489
1506085489742,487
1506085489750,488
1506085489758,488
1506085489766,488
1506085489774,488
1506085489782,487
1506085489790,488
1506085489799,489
1506085489807,488
1506085489815,490
1506085489823,490
1506085489827,493
1506085489835,495
1506085489844,496
1506085489851,501
1506085489860,506
1506085489868,513
1506085489876,523
1506085489885,530
1506085489894,540
1506085489901,547
1506085489909,555
1506085489917,562
1506085489925,566
1506085489934,572
1506085489942,572
1506085489950,573
1506085489958,572
1506085489966,568
1506085489974,565
1506085489982,560
1506085489988,555
1506085489996,550
1506085490004,543
1506085490012,537
1506085490020,531
1506085490028,526
1506085490036,520
1506085490044,514
1506085490052,511
1506085490060,506
1506085490069,502
1506085490077,498
1506085490085,493
1506085490093,491
1506085490102,487
1506085490110,484
1506085490118,482
1506085490126,480
1506085490134,480
1506085490142,478
1506085490146,478
1506085490156,479
1506085490163,478
1506085490172,481
1506085490179,481
1506085490187,482
1506085490196,483
1506085490204,483
1506085490212,484
1506085490220,485
1506085490228,487
1506085490236,490
1506085490245,490
1506085490253,492
1506085490261,490
1506085490269,490
1506085490277,492
1506085490286,490
1506085490294,491
1506085490302,490
1506085490306,491
1506085490314,490
1506085490322,489
1506085490330,491
1506085490338,489
1506085490347,490
1506085490355,490
1506085490363,488
1506085490371,489
1506085490379,488
1506085490389,487
1506085490397,489
1506085490405,487
1506085490413,488
1506085490421,488
1506085490429,488
1506085490437,490
1506085490446,488
1506085490454,490
1506085490462,490
1506085490470,490
1506085490475,492
1506085490482,490
1506085490490,492
1506085490499,492
1506085490508,493
1506085490516,495
1506085490524,496
1506085490532,500
1506085490540,504
1506085490549,510
1506085490557,518
1506085490565,525
1506085490573,535
1506085490581,543
1506085490589,552
1506085490598,560
1506085490606,566
1506085490614,571
1506085490622,573
1506085490630,575
1506085490634,575
1506085490642,572
1506085490651,570
1506085490659,565
1506085490667,559
1506085490676,555
1506085490684,547
1506085490692,543
1506085490700,537
1506085490708,531
1506085490716,526
1506085490725,521
1506085490733,517
1506085490741,513
1506085490749,510
1506085490757,507
1506085490765,502
1506085490774,500
1506085490782,496
1506085490790,494
1506085490794,493
1506085490802,489
1506085490810,488
1506085490819,486
1506085490827,485
1506085490835,485
1506085490843,484
1506085490853,487
1506085490860,487
1506085490868,487
1506085490877,488
1506085490884,488
1506085490892,490
1506085490901,491
1506085490909,492
1506085490917,494
1506085490925,492
1506085490934,494
1506085490941,494
1506085490949,495
1506085490954,495
1506085490962,493
1506085490970,494
1506085490978,493
1506085490986,491
1506085490995,492
1506085491003,490
1506085491011,492
1506085491019,491
1506085491027,491
1506085491037,492
1506085491045,491
1506085491054,493
1506085491061,492
1506085491068,492
1506085491077,493
1506085491084,491
1506085491093,492
1506085491101,492
1506085491109,492
1506085491113,494
1506085491121,493
1506085491129,494
1506085491137,493
1506085491146,494
1506085491154,496
1506085491162,494
1506085491170,496
1506085491178,497
1506085491187,501
1506085491195,507
1506085491203,513
1506085491211,522
1506085491219,531
1506085491228,540
1506085491236,550
1506085491244,556
1506085491253,565
1506085491261,570
1506085491269,573
1506085491274,576
1506085491281,574
1506085491289,573
1506085491298,570
1506085491306,566
1506085491314,562
1506085491322,556
1506085491330,555
1506085491339,546
1506085491347,540
1506085491355,535
1506085491363,528
1506085491371,523
1506085491379,518
1506085491387,514
1506085491396,512
1506085491404,507
1506085491412,505
1506085491421,502
1506085491429,501
1506085491433,499
1506085491441,496
1506085491450,496
1506085491458,494
1506085491466,492
1506085491474,492
1506085491482,489
1506085491490,490
1506085491498,490
1506085491506,490
1506085491515,491
1506085491522,490
1506085491532,492
1506085491540,492
1506085491548,493
1506085491556,495
1506085491564,494
1506085491572,496
1506085491580,496
1506085491588,496
1506085491593,497
1506085491601,495
1506085491609,496
1506085491617,495
1506085491625,494
1506085491633,495
1506085491641,493
1506085491650,494
1506085491659,494
1506085491667,494
1506085491675,495
1506085491683,492
1506085491691,492
1506085491699,492
1506085491707,491
1506085491716,492
1506085491723,491
1506085491732,492
1506085491740,492
1506085491748,491
1506085491752,493
1506085491760,492
1506085491768,493
1506085491776,493
1506085491785,492
1506085491794,495
1506085491802,495
1506085491810,497
1506085491818,501
1506085491826,506
1506085491834,513
1506085491842,520
1506085491851,530
1506085491859,538
1506085491867,546
1506085491875,555
1506085491883,559
1506085491891,565
1506085491900,568
1506085491907,570
1506085491911,572
1506085491921,568
1506085491929,569
1506085491937,565
1506085491945,560
1506085491954,557
1506085491961,550
1506085491969,546
1506085491977,541
1506085491986,535
1506085491994,530
1506085492002,525
1506085492010,521
1506085492018,517
1506085492027,511
1506085492034,509
1506085492043,504
1506085492052,501
1506085492060,498
1506085492068,494
1506085492072,492
1506085492080,488
1506085492088,487
1506085492097,485
1506085492105,483
1506085492113,483
1506085492121,482
1506085492129,483
1506085492138,484
1506085492146,485
1506085492154,488
1506085492162,488
1506085492170,489
1506085492179,490
1506085492187,490
1506085492195,491
1506085492203,490
1506085492211,492
1506085492220,491
1506085492228,490
1506085492232,492
1506085492240,490
1506085492248,490
1506085492256,491
1506085492264,489
1506085492272,490
1506085492281,490
1506085492289,489
1506085492297,489
1506085492305,488
1506085492314,490
1506085492322,487
1506085492330,489
1506085492338,490
1506085492346,489
1506085492354,490
1506085492362,490
1506085492370,490
1506085492379,491
1506085492387,490
1506085492395,490
1506085492399,488
1506085492407,490
1506085492416,489
1506085492424,488
1506085492432,490
1506085492440,489
1506085492448,491
1506085492456,494
1506085492465,496
1506085492473,503
1506085492481,509
1506085492489,517
1506085492497,526
1506085492505,535
1506085492514,546
1506085492522,553
1506085492530,561
1506085492538,567
1506085492546,571
1506085492554,575
1506085492559,574
1506085492567,574
1506085492575,573
1506085492583,570
1506085492591,566
1506085492600,560
1506085492608,555
1506085492616,550
1506085492624,542
1506085492633,537
1506085492641,530
1506085492649,525
1506085492657,521
1506085492665,515
1506085492673,511
1506085492682,507
1506085492690,505
1506085492698,501
1506085492707,497
1506085492714,496
1506085492719,491
1506085492727,490
1506085492735,488
1506085492743,485
1506085492751,485
1506085492760,482
1506085492768,482
1506085492776,482
1506085492784,481
1506085492792,483
1506085492801,482
1506085492809,484
1506085492818,485
1506085492825,485
1506085492834,487
1506085492842,487
1506085492850,489
1506085492858,490
1506085492866,491
1506085492874,492
1506085492879,492
1506085492887,493
1506085492895,493
1506085492903,491
1506085492911,492
1506085492920,491
1506085492928,490
1506085492936,491
1506085492944,490
1506085492953,492
1506085492960,490
1506085492969,490
1506085492977,490
1506085492985,490
1506085492993,491
1506085493001,489
1506085493009,489
1506085493018,489
1506085493027,488
1506085493034,489
1506085493039,488
1506085493048,489
1506085493055,490
1506085493064,490
1506085493072,491
1506085493080,490
1506085493088,491
1506085493096,492
1506085493104,491
1506085493112,493
1506085493120,493
1506085493128,494
1506085493137,498
1506085493145,501
1506085493153,509
1506085493161,516
1506085493169,525
1506085493178,535
1506085493186,542
1506085493194,552
1506085493198,558
1506085493206,565
1506085493215,571
1506085493223,573
1506085493231,576
1506085493239,576
1506085493247,574
1506085493255,572
1506085493264,567
1506085493272,564
1506085493280,558
1506085493288,553
1506085493297,547
1506085493305,541
1506085493313,536
1506085493321,528
1506085493329,524
1506085493338,519
1506085493346,513
1506085493354,510
1506085493358,505
1506085493366,501
1506085493375,498
1506085493383,494
1506085493392,492
1506085493400,489
1506085493409,487
1506085493416,485
1506085493424,483
1506085493432,484
1506085493440,483
1506085493448,483
1506085493456,484
1506085493464,484
1506085493472,485
1506085493480,485
1506085493489,487
1506085493498,488
1506085493505,489
1506085493514,491
1506085493518,491
1506085493526,493
1506085493534,494
1506085493542,493
1506085493550,495
1506085493558,495
1506085493567,494
1506085493575,495
1506085493583,493
1506085493592,494
1506085493599,492
1506085493608,493
1506085493616,493
1506085493624,491
1506085493632,493
1506085493641,491
1506085493649,492
1506085493657,493
1506085493665,491
1506085493673,493
1506085493678,491
1506085493686,493
1506085493694,492
1506085493702,492
1506085493710,495
1506085493718,493
1506085493727,494
1506085493735,494
1506085493743,493
1506085493752,495
1506085493760,494
1506085493768,494
1506085493776,495
1506085493784,494
1506085493792,495
1506085493800,496
1506085493808,498
1506085493816,502
1506085493824,506
1506085493832,515
1506085493837,523
1506085493845,531
1506085493853,542
1506085493861,550
1506085493869,559
1506085493878,565
1506085493886,572
1506085493894,576
1506085493902,577
1506085493911,580
1506085493919,578
1506085493929,576
1506085493936,573
1506085493945,567
1506085493952,563
1506085493960,557
1506085493969,549
1506085493977,544
1506085493985,537
1506085493993,532
1506085493997,526
1506085494005,522
1506085494014,519
1506085494021,512
1506085494030,509
1506085494038,505
1506085494046,500
1506085494054,498
1506085494062,494
1506085494070,492
1506085494079,490
1506085494087,488
1506085494095,487
1506085494103,485
1506085494112,486
1506085494120,487
1506085494128,486
1506085494136,488
1506085494144,487
1506085494152,489
1506085494160,489
1506085494165,491
1506085494173,492
1506085494181,492
1506085494189,494
1506085494197,494
1506085494206,495
1506085494214,496
1506085494222,495
1506085494230,496
1506085494238,494
1506085494246,494
1506085494254,494
1506085494263,493
1506085494271,493
1506085494279,493
1506085494287,493
1506085494295,494
1506085494304,492
1506085494312,494
1506085494319,493
1506085494324,492
1506085494332,493
1506085494340,490
1506085494348,492
1506085494357,492
1506085494366,492
1506085494374,493
1506085494382,492
1506085494390,493
1506085494399,492
1506085494407,493
1506085494415,495
1506085494423,494
1506085494431,496
1506085494439,496
1506085494447,499
1506085494455,503
1506085494463,507
1506085494472,515
1506085494479,523
1506085494484,532
1506085494493,541
1506085494501,549
1506085494509,559
1506085494517,565
1506085494525,570
1506085494534,575
1506085494541,574
1506085494550,575
1506085494558,572
1506085494566,569
1506085494574,566
1506085494582,559
1506085494591,555
1506085494598,549
1506085494607,543
1506085494616,538
1506085494623,532
1506085494632,529
1506085494640,525
1506085494644,520
1506085494652,518
1506085494661,512
1506085494668,509
1506085494677,505
1506085494685,501
1506085494693,499
1506085494701,494
1506085494709,493
1506085494718,488
1506085494726,486
1506085494734,486
1506085494742,482
1506085494750,482
1506085494759,482
1506085494767,482
1506085494775,482
1506085494783,480
1506085494791,482
1506085494799,482
1506085494804,482
1506085494812,483
1506085494820,482
1506085494828,484
1506085494836,485
1506085494844,485
1506085494853,487
1506085494861,486
1506085494869,488
1506085494877,490
1506085494886,489
1506085494894,491
1506085494902,489
1506085494910,491
1506085494918,491
1506085494926,491
1506085494935,493
1506085494943,492
1506085494951,493
1506085494959,494
1506085494963,493
1506085494971,494
1506085494980,493
1506085494988,495
1506085494996,494
1506085495004,494
1506085495012,496
1506085495020,494
1506085495028,496
1506085495037,497
1506085495045,495
1506085495053,497
1506085495061,498
1506085495070,501
1506085495078,505
1506085495086,510
1506085495094,518
1506085495102,524
1506085495110,535
1506085495119,544
1506085495122,553
1506085495132,563
1506085495140,568
1506085495148,574
1506085495156,578
1506085495164,578
1506085495173,578
1506085495181,574
1506085495189,572
1506085495197,566
1506085495205,560
1506085495214,555
1506085495222,546
1506085495230,541
1506085495238,533
1506085495246,527
1506085495254,522
1506085495262,515
1506085495270,511
1506085495278,506
1506085495283,502
1506085495291,500
1506085495299,494
1506085495307,492
1506085495316,488
1506085495324,485
1506085495332,484
1506085495340,480
1506085495348,481
1506085495357,480
1506085495365,479
1506085495373,480
1506085495381,479
1506085495389,481
1506085495397,482
1506085495406,483
1506085495414,486
1506085495422,485
1506085495430,488
1506085495438,489
1506085495442,489
1506085495450,492
1506085495459,490
1506085495467,491
1506085495475,491
1506085495483,491
1506085495492,491
1506085495500,489
1506085495509,490
1506085495516,489
1506085495525,489
1506085495533,491
1506085495541,489
1506085495549,490
1506085495557,490
1506085495565,489
1506085495573,490
1506085495581,488
1506085495590,489
1506085495598,489
1506085495603,488
1506085495611,489
1506085495619,486
1506085495627,487
1506085495636,487
1506085495644,486
1506085495652,487
1506085495660,485
1506085495668,486
1506085495676,486
1506085495684,485
1506085495692,487
1506085495700,487
1506085495709,491
1506085495717,496
1506085495725,501
1506085495733,510
1506085495741,518
1506085495749,528
1506085495758,540
1506085495762,548
1506085495770,558
1506085495778,562
1506085495786,569
1506085495794,572
1506085495803,573
1506085495811,575
1506085495820,573
1506085495828,570
1506085495836,567
1506085495844,561
1506085495853,556
1506085495861,549
1506085495869,543
1506085495877,537
1506085495885,529
1506085495894,525
1506085495902,518
1506085495910,514
1506085495918,510
1506085495922,505
1506085495930,503
1506085495939,499
1506085495947,496
1506085495955,494
1506085495963,489
1506085495972,488
1506085495980,484
1506085495988,484
1506085495996,483
1506085496004,480
1506085496012,481
1506085496020,480
1506085496028,480
1506085496036,481
1506085496045,482
1506085496053,484
1506085496061,484
1506085496069,486
1506085496077,487
1506085496081,486
1506085496089,488
1506085496098,486
1506085496106,488
1506085496114,489
1506085496123,487
1506085496132,488
1506085496139,487
1506085496147,488
1506085496156,487
1506085496164,487
1506085496172,487
1506085496180,485
1506085496188,486
1506085496196,486
1506085496205,484
1506085496213,485
1506085496221,485
1506085496229,486
1506085496237,487
1506085496245,487
1506085496250,488
1506085496258,487
1506085496266,489
1506085496274,490
1506085496283,489
1506085496290,490
1506085496299,489
1506085496308,489
1506085496315,489
1506085496323,487
1506085496332,490
1506085496340,489
1506085496348,489
1506085496356,489
1506085496364,487
1506085496372,490
1506085496380,490
1506085496388,493
1506085496397,498
1506085496404,502
1506085496409,512
1506085496417,519
1506085496425,529
1506085496434,539
1506085496442,548
1506085496451,558
1506085496459,563
1506085496467,570
1506085496475,575
1506085496483,575
1506085496491,577
1506085496499,574
1506085496508,572
1506085496516,569
1506085496524,563
1506085496532,559
1506085496540,551
1506085496548,546
1506085496556,540
1506085496565,533
1506085496569,531
1506085496577,524
1506085496586,519
1506085496594,515
1506085496602,509
1506085496610,506
1506085496618,502
1506085496626,499
1506085496636,495
1506085496644,492
1506085496651,490
1506085496659,487
1506085496667,486
1506085496675,485
1506085496684,483
1506085496692,486
1506085496700,484
1506085496708,485
1506085496716,486
1506085496724,486
1506085496729,489
1506085496737,489
1506085496745,492
1506085496753,492
1506085496761,492
1506085496769,495
1506085496778,495
1506085496786,495
1506085496794,497
1506085496802,495
1506085496810,497
1506085496819,496
1506085496828,495
1506085496836,496
1506085496844,495
1506085496852,497
1506085496860,494
1506085496868,494
1506085496876,495
1506085496884,492
1506085496888,494
1506085496896,492
1506085496904,492
1506085496913,493
1506085496921,491
1506085496930,492
1506085496938,491
1506085496946,492
1506085496954,491
1506085496962,490
1506085496970,491
1506085496979,490
1506085496987,491
1506085496997,493
1506085497003,491
1506085497012,491
1506085497020,491
1506085497029,492
1506085497036,493
1506085497044,494
1506085497048,499
1506085497057,504
1506085497065,510
1506085497073,519
1506085497081,527
1506085497089,538
1506085497097,546
1506085497105,554
1506085497114,562
1506085497121,567
1506085497130,572
1506085497138,573
1506085497146,575
1506085497155,574
1506085497163,570
1506085497171,569
1506085497179,563
1506085497188,559
1506085497195,555
1506085497203,547
1506085497208,541
1506085497216,534
1506085497224,528
1506085497232,523
1506085497240,517
1506085497248,514
1506085497257,508
1506085497265,505
1506085497273,501
1506085497281,496
1506085497289,494
1506085497297,490
1506085497306,487
1506085497314,486
1506085497322,483
1506085497330,483
1506085497338,481
1506085497348,481
1506085497355,483
1506085497363,481
1506085497367,484
1506085497376,484
1506085497384,485
1506085497393,489
1506085497401,488
1506085497409,490
1506085497417,490
1506085497425,491
1506085497433,492
1506085497441,492
1506085497450,494
1506085497458,493
1506085497466,493
1506085497474,494
1506085497482,491
1506085497490,493
1506085497498,493
1506085497507,491
1506085497516,492
1506085497523,491
1506085497527,492
1506085497535,491
1506085497543,491
1506085497552,492
1506085497560,491
1506085497568,492
1506085497576,492
1506085497584,492
1506085497593,493
1506085497601,493
1506085497609,494
1506085497617,493
1506085497625,492
1506085497633,493
1506085497641,492
1506085497650,495
1506085497659,496
1506085497667,501
1506085497675,508
1506085497683,513
1506085497687,524
1506085497695,532
1506085497703,540
1506085497712,549
1506085497720,554
1506085497728,561
1506085497736,564
1506085497744,567
1506085497752,569
1506085497761,567
1506085497769,566
1506085497777,563
1506085497785,558
1506085497793,555
1506085497801,549
1506085497810,541
1506085497818,535
1506085497826,529
1506085497834,524
1506085497842,517
1506085497846,514
1506085497855,509
1506085497863,505
1506085497872,502
1506085497880,496
1506085497888,494
1506085497896,490
1506085497904,487
1506085497912,485
1506085497921,481
1506085497929,480
1506085497937,478
1506085497945,478
1506085497953,478
1506085497961,477
1506085497969,479
1506085497978,480
1506085497986,481
1506085497994,483
1506085498002,483
1506085498010,486
1506085498015,486
1506085498022,487
1506085498031,488
1506085498040,487
1506085498048,489
1506085498056,489
1506085498064,488
1506085498072,490
1506085498081,488
1506085498089,489
1506085498097,488
1506085498105,488
1506085498114,490
1506085498121,488
1506085498130,489
1506085498138,488
1506085498146,488
1506085498154,489
1506085498162,488
1506085498170,489
1506085498175,488
1506085498183,488
1506085498191,489
1506085498199,488
1506085498207,489
1506085498216,490
1506085498224,490
1506085498232,490
1506085498240,489
1506085498248,492
1506085498256,493
1506085498264,496
1506085498273,501
1506085498281,506
1506085498289,515
1506085498297,523
1506085498305,532
1506085498314,543
1506085498321,550
1506085498329,558
1506085498334,563
1506085498342,568
1506085498350,571
1506085498358,571
1506085498367,572
1506085498375,569
1506085498383,565
1506085498391,562
1506085498399,555
1506085498408,550
1506085498416,544
1506085498425,538
1506085498433,533
1506085498441,525
1506085498449,520
1506085498457,515
1506085498465,509
1506085498474,506
1506085498482,500
1506085498490,498
1506085498494,494
1506085498503,491
1506085498510,489
1506085498518,485
1506085498526,483
1506085498535,480
1506085498543,479
1506085498551,479
1506085498559,476
1506085498567,478
1506085498576,478
1506085498584,478
1506085498593,480
1506085498601,480
1506085498609,482
1506085498617,483
1506085498625,485
1506085498634,486
1506085498642,486
1506085498650,488
1506085498654,488
1506085498662,488
1506085498670,489
1506085498678,487
1506085498686,489
1506085498695,489
1506085498703,488
1506085498711,489
1506085498719,488
1506085498727,489
1506085498735,489
1506085498743,489
1506085498751,489
1506085498760,488
1506085498769,490
1506085498777,489
1506085498785,489
1506085498793,490
1506085498801,489
1506085498809,490
1506085498814,490
1506085498822,492
1506085498830,493
1506085498838,491
1506085498846,492
1506085498855,492
1506085498862,491
1506085498871,493
1506085498879,491
1506085498887,492
1506085498895,493
1506085498903,494
1506085498911,497
1506085498919,500
1506085498928,507
1506085498936,513
1506085498944,521
1506085498952,530
1506085498961,538
1506085498968,550
1506085498973,558
1506085498981,562
1506085498990,574
1506085498998,579
1506085499006,581
1506085499014,582
1506085499022,579
1506085499030,577
1506085499039,573
1506085499047,568
1506085499055,561
1506085499063,555
1506085499071,551
1506085499079,542
1506085499087,536
1506085499096,530
1506085499104,522
1506085499112,518
1506085499120,511
1506085499128,507
1506085499132,503
1506085499140,498
1506085499149,495
1506085499158,490
1506085499166,488
1506085499173,485
1506085499182,482
1506085499190,483
1506085499198,481
1506085499206,481
1506085499214,481
1506085499222,481
1506085499230,484
1506085499238,484
1506085499247,486
1506085499255,488
1506085499263,488
1506085499271,491
1506085499279,491
1506085499287,492
1506085499292,494
1506085499300,493
1506085499308,494
1506085499317,492
1506085499325,493
1506085499334,493
1506085499343,492
1506085499350,492
1506085499358,490
1506085499366,490
1506085499375,490
1506085499383,489
1506085499391,486
1506085499399,483
1506085499407,483
1506085499416,482
1506085499424,481
1506085499432,482
1506085499440,482
1506085499448,483
1506085499452,485
1506085499461,484
1506085499469,487
1506085499477,486
1506085499485,487
1506085499494,488
1506085499501,488
1506085499510,490
1506085499518,489
1506085499526,490
1506085499534,492
1506085499543,493
1506085499551,497
1506085499559,502
1506085499567,505
1506085499575,506
1506085499583,506
1506085499591,509
1506085499600,511
1506085499608,515
1506085499612,519
1506085499620,518
1506085499628,523
1506085499636,528
1506085499645,534
1506085499653,543
1506085499661,549
1506085499669,557
1506085499678,562
1506085499686,567
1506085499694,571
1506085499703,571
1506085499710,573
1506085499719,571
1506085499726,570
1506085499735,566
1506085499743,560
1506085499751,556
1506085499759,548
1506085499767,543
1506085499775,536
1506085499779,530
1506085499788,526
1506085499796,520
1506085499804,517
1506085499812,512
1506085499821,507
1506085499829,505
1506085499837,500
1506085499846,498
1506085499854,495
1506085499862,491
1506085499871,490
1506085499878,486
1506085499887,486
1506085499895,486
1506085499903,483
1506085499911,487
1506085499920,484
1506085499927,485
1506085499935,485
1506085499939,485
1506085499947,491
1506085499957,489
1506085499965,489
1506085499973,490
1506085499981,489
1506085499989,491
1506085499997,490
1506085500006,491
1506085500014,492
1506085500022,491
1506085500030,492
1506085500038,491
1506085500046,492
1506085500055,492
1506085500064,491
1506085500071,491
1506085500080,490
1506085500087,491
1506085500095,490
1506085500099,491
1506085500107,491
1506085500116,489
1506085500124,490
1506085500132,490
1506085500140,490
1506085500149,491
1506085500157,491
1506085500165,494
1506085500173,494
1506085500181,493
1506085500189,494
1506085500198,494
1506085500206,495
1506085500214,495
1506085500222,494
1506085500230,496
1506085500239,493
1506085500247,494
1506085500255,496
1506085500260,496
1506085500267,497
1506085500276,499
1506085500284,504
1506085500292,509
1506085500300,514
1506085500308,523
1506085500316,530
1506085500324,540
1506085500333,549
1506085500341,557
1506085500349,565
1506085500357,568
1506085500366,572
1506085500374,574
1506085500382,574
1506085500390,574
1506085500398,570
1506085500406,567
1506085500415,562
1506085500419,555
1506085500427,552
1506085500436,545
1506085500444,538
1506085500452,534
1506085500460,527
1506085500468,522
1506085500476,517
1506085500485,512
1506085500493,508
1506085500501,503
1506085500509,500
1506085500517,495
1506085500525,492
1506085500533,490
1506085500542,486
1506085500550,486
1506085500558,483
1506085500566,482
1506085500574,482
1506085500578,481
1506085500586,484
1506085500595,483
1506085500603,485
1506085500611,487
1506085500619,486
1506085500627,489
1506085500636,490
1506085500644,491
1506085500652,493
1506085500660,493
1506085500668,495
1506085500676,494
1506085500685,495
1506085500693,496
1506085500701,495
1506085500709,496
1506085500717,494
1506085500725,494
1506085500734,494
1506085500738,492
1506085500746,493
1506085500754,492
1506085500762,492
1506085500771,492
1506085500779,490
1506085500787,491
1506085500795,490
1506085500803,490
1506085500811,490
1506085500820,490
1506085500828,491
1506085500836,491
1506085500845,491
1506085500854,492
1506085500862,491
1506085500870,492
1506085500878,492
1506085500886,494
1506085500894,497
1506085500899,500
1506085500907,507
1506085500915,513
1506085500923,523
1506085500931,532
1506085500940,540
1506085500947,551
1506085500956,558
1506085500964,565
1506085500972,570
1506085500980,572
1506085500989,574
1506085500997,573
1506085501005,572
1506085501013,569
1506085501022,563
1506085501029,560
1506085501038,554
1506085501046,548
1506085501054,542
1506085501058,535
1506085501066,530
1506085501074,524
1506085501083,519
1506085501091,515
1506085501099,509
1506085501107,507
1506085501115,501
1506085501123,498
1506085501132,495
1506085501140,489
1506085501148,487
1506085501156,484
1506085501164,481
1506085501172,481
1506085501181,479
1506085501189,480
1506085501197,478
1506085501205,479
1506085501213,480
1506085501218,481
1506085501226,484
1506085501234,484
1506085501242,486
1506085501250,489
1506085501258,489
1506085501267,491
1506085501275,491
1506085501283,492
1506085501291,493
1506085501299,492
1506085501307,494
1506085501316,493
1506085501324,493
1506085501332,494
1506085501340,494
1506085501348,494
1506085501357,493
1506085501365,492
1506085501373,492
1506085501377,491
1506085501386,491
1506085501394,491
1506085501402,492
1506085501410,493
1506085501418,490
1506085501426,491
1506085501435,491
1506085501443,490
1506085501451,491
1506085501459,489
1506085501467,490
1506085501475,490
1506085501484,490
1506085501492,492
1506085501500,494
1506085501508,503
1506085501516,507
1506085501524,515
1506085501533,526
1506085501540,531
1506085501545,544
1506085501554,551
1506085501561,556
1506085501569,565
1506085501578,573
1506085501586,578
1506085501594,577
1506085501602,574
1506085501610,571
1506085501619,565
1506085501627,562
1506085501635,556
1506085501643,551
1506085501651,547
1506085501659,540
1506085501668,537
1506085501676,532
1506085501684,527
1506085501692,525
1506085501700,521
1506085501705,518
1506085501713,513
1506085501721,509
1506085501729,507
1506085501738,501
1506085501746,500
1506085501754,496
1506085501762,492
1506085501771,492
1506085501779,489
1506085501787,490
1506085501795,488
1506085501803,487
1506085501811,487
1506085501820,486
1506085501828,487
1506085501836,485
1506085501844,485
1506085501852,487
1506085501860,486
1506085501865,487
1506085501874,488
1506085501882,490
1506085501890,492
1506085501898,497
1506085501906,498
1506085501914,495
1506085501922,494
1506085501930,499
1506085501939,498
1506085501947,500
1506085501955,500
1506085501963,500
1506085501971,500
1506085501980,497
1506085501988,492
1506085501996,486
1506085502004,483
1506085502012,481
1506085502020,478
1506085502024,478
1506085502032,479
1506085502042,481
1506085502051,479
1506085502058,475
1506085502067,475
1506085502074,475
1506085502082,476
1506085502090,478
1506085502099,480
1506085502107,484
1506085502115,485
1506085502123,486
1506085502131,488
1506085502139,489
1506085502147,494
1506085502156,499
1506085502164,505
1506085502172,514
1506085502180,523
1506085502184,535
1506085502192,545
1506085502201,556
1506085502209,565
1506085502217,570
1506085502226,577
1506085502234,580
1506085502242,581
1506085502250,583
1506085502258,578
1506085502266,576
1506085502275,571
1506085502282,566
1506085502290,561
1506085502299,554
1506085502307,549
1506085502315,542
1506085502323,535
1506085502331,530
1506085502339,523
1506085502344,519
1506085502352,513
1506085502360,508
1506085502368,504
1506085502376,499
1506085502385,496
1506085502395,492
1506085502401,489
1506085502410,487
1506085502419,484
1506085502427,484
1506085502434,481
1506085502442,480
1506085502451,480
1506085502459,479
1506085502467,481
1506085502475,481
1506085502483,482
1506085502491,484
1506085502499,485
1506085502503,488
1506085502511,488
1506085502520,489
1506085502528,491
1506085502536,490
1506085502544,491
1506085502553,492
1506085502561,492
1506085502569,493
1506085502578,492
1506085502586,494
1506085502594,494
1506085502602,493
1506085502610,495
1506085502618,493
1506085502627,494
1506085502635,494
1506085502643,492
1506085502651,493
1506085502659,491
1506085502663,491
1506085502672,491
1506085502680,490
1506085502688,492
1506085502696,490
1506085502704,491
1506085502712,491
1506085502720,491
1506085502728,493
1506085502737,491
1506085502746,493
1506085502754,493
1506085502763,493
1506085502771,495
1506085502779,494
1506085502787,498
1506085502795,501
1506085502803,507
1506085502812,514
1506085502819,521
1506085502823,532
1506085502831,541
1506085502840,550
1506085502848,561
1506085502856,567
1506085502864,574
1506085502872,579
1506085502880,582
1506085502889,584
1506085502897,581
1506085502905,579
1506085502914,574
1506085502921,569
1506085502931,565
1506085502938,557
1506085502946,552
1506085502954,545
1506085502963,537
1506085502970,532
1506085502978,525
1506085502982,520
1506085502991,515
1506085503000,510
1506085503008,507
1506085503016,501
1506085503024,499
1506085503032,495
1506085503040,492
1506085503049,492
1506085503057,490
1506085503065,489
1506085503074,489
1506085503081,489
1506085503090,489
1506085503098,489
1506085503106,490
1506085503114,491
1506085503123,490
1506085503131,492
1506085503140,491
1506085503142,493
1506085503151,493
1506085503159,493
1506085503167,494
1506085503176,493
1506085503184,494
1506085503192,494
1506085503200,493
1506085503208,494
1506085503216,493
1506085503224,494
1506085503233,494
1506085503241,493
1506085503249,495
1506085503257,494
1506085503265,495
1506085503273,494
1506085503281,494
1506085503291,496
1506085503298,495
1506085503302,494
1506085503310,495
1506085503318,494
1506085503326,495
1506085503335,494
1506085503343,494
1506085503351,494
1506085503359,494
1506085503368,495
1506085503375,495
1506085503385,498
1506085503393,503
1506085503401,507
1506085503409,516
1506085503417,524
1506085503425,535
1506085503434,546
1506085503442,556
1506085503450,567
1506085503458,573
1506085503466,579
1506085503470,583
1506085503478,584
1506085503487,586
1506085503495,583
1506085503503,581
1506085503511,577
1506085503519,571
1506085503528,566
1506085503536,557
1506085503544,551
1506085503552,545
1506085503560,537
1506085503568,533
1506085503576,525
1506085503584,521
1506085503593,515
1506085503601,509
1506085503609,505
1506085503618,500
1506085503626,496
1506085503630,493
1506085503638,489
1506085503646,487
1506085503654,484
1506085503663,482
1506085503671,481
1506085503679,480
1506085503687,482
1506085503695,482
1506085503703,483
1506085503712,484
1506085503720,484
1506085503728,487
1506085503736,487
1506085503744,489
1506085503753,490
1506085503761,491
1506085503769,492
1506085503777,491
1506085503785,492
1506085503789,492
1506085503798,491
1506085503806,492
1506085503814,491
1506085503822,491
1506085503831,490
1506085503839,490
1506085503847,490
1506085503855,488
1506085503863,489
1506085503871,488
1506085503879,487
1506085503888,489
1506085503896,488
1506085503904,488
1506085503912,489
1506085503920,488
1506085503928,489
1506085503937,488
1506085503944,489
1506085503949,491
1506085503957,492
1506085503965,498
1506085503974,502
1506085503982,511
1506085503990,521
1506085503998,530
1506085504006,542
1506085504015,552
1506085504023,563
1506085504031,572
1506085504039,578
1506085504047,584
1506085504055,585
1506085504063,586
1506085504072,584
1506085504080,580
1506085504088,577
1506085504097,570
1506085504105,564
1506085504110,558
1506085504118,549
1506085504126,543
1506085504134,536
1506085504142,530
1506085504150,523
1506085504159,518
1506085504167,514
1506085504175,507
1506085504183,503
1506085504191,499
1506085504199,493
1506085504208,490
1506085504216,486
1506085504224,483
1506085504232,481
1506085504240,479
1506085504249,478
1506085504257,477
1506085504265,479
1506085504269,479
1506085504277,479
1506085504285,481
1506085504294,482
1506085504302,484
1506085504310,485
1506085504318,486
1506085504326,488
1506085504334,488
1506085504343,490
1506085504351,491
1506085504359,490
1506085504367,492
1506085504375,491
1506085504384,492
1506085504392,492
1506085504400,491
1506085504408,491
1506085504416,490
1506085504424,491
1506085504429,490
1506085504437,489
1506085504445,492
1506085504453,489
1506085504461,489
1506085504469,488
1506085504478,486
1506085504486,488
1506085504495,486
1506085504503,486
1506085504511,487
1506085504519,486
1506085504527,487
1506085504535,488
1506085504543,490
1506085504551,494
1506085504560,499
1506085504568,509
1506085504576,517
1506085504584,528
1506085504589,541
1506085504597,550
1506085504605,562
1506085504613,569
1506085504621,577
1506085504629,583
1506085504637,585
1506085504645,587
1506085504654,585
1506085504662,584
1506085504671,579
1506085504679,574
1506085504687,569
1506085504696,561
1506085504703,554
1506085504711,548
1506085504719,540
1506085504727,534
1506085504735,527
1506085504744,521
1506085504749,516
1506085504757,510
1506085504765,506
1506085504774,500
1506085504782,496
1506085504789,493
1506085504798,488
1506085504806,487
1506085504814,482
1506085504822,481
1506085504830,480
1506085504838,477
1506085504846,478
1506085504854,477
1506085504863,478
1506085504871,478
1506085504879,478
1506085504887,481
1506085504896,481
1506085504904,482
1506085504908,486
1506085504917,486
1506085504924,488
1506085504933,488
1506085504941,489
1506085504949,489
1506085504957,489
1506085504965,491
1506085504974,490
1506085504981,489
1506085504990,490
1506085504998,487
1506085505006,488
1506085505015,487
1506085505023,487
1506085505031,487
1506085505039,486
1506085505047,486
1506085505056,485
1506085505063,486
1506085505068,486
1506085505076,484
1506085505084,486
1506085505092,484
1506085505100,485
1506085505109,487
1506085505117,486
1506085505125,488
1506085505134,488
1506085505142,490
1506085505150,491
1506085505158,491
1506085505166,495
1506085505174,497
1506085505182,502
1506085505191,509
1506085505198,516
1506085505207,527
1506085505215,536
1506085505223,547
1506085505231,558
1506085505235,566
1506085505243,575
1506085505252,579
1506085505260,583
1506085505268,585
1506085505276,584
1506085505285,584
1506085505294,579
1506085505301,575
1506085505310,570
1506085505317,564
1506085505325,558
1506085505334,551
1506085505342,544
1506085505350,537
1506085505358,530
1506085505366,525
1506085505375,518
1506085505382,513
1506085505391,509
1506085505396,503
1506085505404,501
1506085505412,495
1506085505420,492
1506085505428,488
1506085505436,483
1506085505444,482
1506085505452,480
1506085505461,479
1506085505469,479
1506085505478,478
1506085505486,481
1506085505493,481
1506085505501,482
1506085505510,486
1506085505518,485
1506085505527,488
1506085505535,489
1506085505543,490
1506085505551,492
1506085505555,493
1506085505563,495
1506085505571,494
1506085505579,495
1506085505588,496
1506085505596,493
1506085505604,495
1506085505612,494
1506085505620,493
1506085505628,494
1506085505638,493
1506085505645,492
1506085505653,492
1506085505661,492
1506085505669,492
1506085505678,490
1506085505686,491
1506085505694,490
1506085505702,490
1506085505710,491
1506085505715,489
1506085505723,490
1506085505731,489
1506085505740,489
1506085505748,489
1506085505756,488
1506085505764,488
1506085505772,487
1506085505780,489
1506085505788,491
1506085505797,491
1506085505805,495
1506085505813,499
1506085505821,505
1506085505829,514
1506085505839,522
1506085505846,533
1506085505854,542
1506085505862,552
1506085505870,561
1506085505875,566
1506085505883,573
1506085505891,576
1506085505899,577
1506085505907,577
1506085505915,574
1506085505924,572
1506085505932,567
1506085505940,561
1506085505948,555
1506085505956,547
1506085505965,542
1506085505973,534
1506085505981,528
1506085505989,523
1506085505997,516
1506085506005,512
1506085506014,507
1506085506022,503
1506085506030,500
1506085506034,495
1506085506042,493
1506085506050,489
1506085506059,486
1506085506067,484
1506085506075,482
1506085506083,482
1506085506091,480
1506085506099,480
1506085506107,482
1506085506115,481
1506085506124,483
1506085506132,484
1506085506140,485
1506085506148,487
1506085506156,487
1506085506165,489
1506085506173,489
1506085506181,494
1506085506189,501
1506085506193,500
1506085506201,501
1506085506210,500
1506085506219,495
1506085506227,493
1506085506235,489
1506085506243,488
1506085506251,486
1506085506260,485
1506085506268,485
1506085506276,484
1506085506284,485
1506085506292,484
1506085506301,485
1506085506309,486
1506085506317,485
1506085506325,487
1506085506334,487
1506085506341,491
1506085506349,491
1506085506354,490
1506085506362,492
1506085506370,491
1506085506378,492
1506085506386,495
1506085506395,495
1506085506402,500
1506085506411,505
1506085506419,510
1506085506427,521
1506085506435,529
1506085506443,540
1506085506452,550
1506085506460,558
1506085506468,567
1506085506476,573
1506085506484,578
1506085506494,580
1506085506501,580
1506085506509,581
1506085506514,576
1506085506522,573
1506085506530,568
1506085506538,561
1506085506546,555
1506085506554,547
1506085506562,541
1506085506570,534
1506085506579,528
1506085506587,523
1506085506595,515
1506085506603,512
1506085506612,506
1506085506620,501
1506085506628,498
1506085506637,495
1506085506645,491
1506085506653,487
1506085506661,483
1506085506669,482
1506085506674,480
1506085506681,479
1506085506690,478
1506085506698,477
1506085506706,479
1506085506714,477
1506085506722,480
1506085506731,481
1506085506739,483
1506085506747,485
1506085506755,486
1506085506763,488
1506085506771,489
1506085506779,490
1506085506787,492
1506085506796,491
1506085506804,492
1506085506813,493
1506085506821,493
1506085506828,493
1506085506833,492
1506085506841,493
1506085506849,492
1506085506857,491
1506085506866,491
1506085506874,490
1506085506882,489
1506085506890,489
1506085506898,488
1506085506906,488
1506085506915,487
1506085506923,489
1506085506931,487
1506085506939,487
1506085506947,488
1506085506955,485
1506085506964,487
1506085506972,487
1506085506981,488
1506085506989,492
1506085506993,496
1506085507001,504
1506085507009,513
1506085507017,522
1506085507025,534
1506085507033,542
1506085507042,552
1506085507050,561
1506085507058,567
1506085507066,574
1506085507075,576
1506085507082,578
1506085507091,577
1506085507099,574
1506085507107,571
1506085507115,565
1506085507124,560
1506085507132,552
1506085507140,545
1506085507148,539
1506085507152,530
1506085507160,524
1506085507168,518
1506085507177,512
1506085507185,508
1506085507193,503
1506085507201,500
1506085507209,496
1506085507217,492
1506085507226,489
1506085507234,485
1506085507242,483
1506085507251,480
1506085507259,479
1506085507267,478
1506085507276,476
1506085507283,477
1506085507292,478
1506085507300,478
1506085507308,480
1506085507316,480
1506085507320,483
1506085507329,483
1506085507337,485
1506085507345,487
1506085507353,486
1506085507361,488
1506085507369,488
1506085507378,487
1506085507386,489
1506085507394,488
1506085507402,489
1506085507410,489
1506085507418,488
1506085507427,490
1506085507435,488
1506085507443,489
1506085507451,488
1506085507459,487
1506085507467,489
1506085507475,486
1506085507480,487
1506085507488,487
1506085507496,486
1506085507504,487
1506085507513,485
1506085507521,487
1506085507528,487
1506085507537,487
1506085507546,488
1506085507554,487
1506085507562,489
1506085507570,491
1506085507578,493
1506085507587,500
1506085507595,506
1506085507603,515
1506085507611,525
1506085507619,535
1506085507627,546
1506085507635,554
1506085507640,563
1506085507648,569
1506085507656,572
1506085507664,577
1506085507673,577
1506085507681,576
1506085507689,575
1506085507697,569
1506085507705,566
1506085507714,559
1506085507722,555
1506085507730,548
1506085507738,541
1506085507746,536
1506085507754,529
1506085507763,524
1506085507771,519
1506085507779,512
1506085507787,509
1506085507795,504
1506085507799,501
1506085507808,496
1506085507815,491
1506085507824,489
1506085507833,483
1506085507841,482
1506085507849,480
1506085507857,477
1506085507865,478
1506085507874,476
1506085507881,477
1506085507889,477
1506085507897,477
1506085507906,479
1506085507914,479
1506085507922,482
1506085507930,484
1506085507938,485
1506085507946,487
1506085507955,487
1506085507959,489
1506085507968,490
1506085507976,490
1506085507984,492
1506085507993,490
1506085508000,490
1506085508008,490
1506085508017,489
1506085508025,490
1506085508033,487
1506085508041,487
1506085508049,487
1506085508057,484
1506085508065,485
1506085508074,484
1506085508082,484
1506085508090,485
1506085508098,484
1506085508106,485
1506085508114,485
1506085508119,486
1506085508127,487
1506085508135,486
1506085508143,488
1506085508151,487
1506085508161,488
1506085508168,489
1506085508177,489
1506085508185,491
1506085508193,492
1506085508201,495
1506085508209,500
1506085508217,505
1506085508225,513
1506085508233,520
1506085508241,531
1506085508249,541
1506085508258,550
1506085508266,561
1506085508274,568
1506085508278,576
1506085508286,581
1506085508295,583
1506085508303,584
1506085508311,581
1506085508319,580
1506085508327,576
1506085508335,570
1506085508343,567
1506085508352,558
1506085508360,552
1506085508368,545
1506085508376,537
1506085508384,532
1506085508393,525
1506085508401,520
1506085508409,515
1506085508417,509
1506085508426,505
1506085508435,499
1506085508439,496
1506085508447,492
1506085508455,487
1506085508463,485
1506085508471,482
1506085508479,479
1506085508488,478
1506085508496,476
1506085508504,476
1506085508512,477
1506085508520,478
1506085508528,479
1506085508537,479
1506085508545,482
1506085508554,482
1506085508562,484
1506085508569,486
1506085508578,485
1506085508586,488
1506085508594,488
1506085508598,488
1506085508606,489
1506085508614,488
1506085508622,489
1506085508630,487
1506085508639,487
1506085508648,488
1506085508656,485
1506085508664,487
1506085508672,485
1506085508680,485
1506085508689,486
1506085508697,485
1506085508705,486
1506085508713,484
1506085508721,485
1506085508730,485
1506085508737,486
1506085508746,487
1506085508753,486
1506085508758,486
1506085508767,487
1506085508775,486
1506085508783,486
1506085508791,486
1506085508799,487
1506085508807,487
1506085508815,486
1506085508823,488
1506085508832,487
1506085508840,489
1506085508848,491
1506085508856,494
1506085508864,501
1506085508872,506
1506085508881,516
1506085508889,526
1506085508898,536
1506085508907,548
1506085508914,558
1506085508918,567
1506085508926,574
1506085508934,578
1506085508943,583
1506085508951,582
1506085508959,582
1506085508967,582
1506085508976,576
1506085508983,573
1506085508992,567
1506085509000,561
1506085509008,555
1506085509016,548
1506085509024,542
1506085509032,535
1506085509041,530
1506085509049,524
1506085509058,517
1506085509065,513
1506085509075,507
1506085509081,501
1506085509086,497
1506085509094,491
1506085509102,488
1506085509110,483
1506085509118,482
1506085509127,480
1506085509135,477
1506085509143,478
1506085509151,477
1506085509159,479
1506085509167,481
1506085509176,480
1506085509184,483
1506085509192,484
1506085509200,486
1506085509208,488
1506085509216,489
1506085509225,492
1506085509233,492
1506085509241,494
1506085509245,494
1506085509254,492
1506085509262,495
1506085509270,494
1506085509278,493
1506085509286,494
1506085509295,493
1506085509302,493
1506085509311,492
1506085509319,492
1506085509327,492
1506085509335,491
1506085509343,492
1506085509352,489
1506085509360,489
1506085509368,490
1506085509376,489
1506085509384,489
1506085509392,488
1506085509400,488
1506085509405,488
1506085509413,487
1506085509421,489
1506085509429,488
1506085509438,489
1506085509446,490
1506085509454,489
1506085509462,490
1506085509470,491
1506085509478,493
1506085509486,497
1506085509495,500
1506085509503,508
1506085509511,514
1506085509519,524
1506085509527,535
1506085509536,544
1506085509544,556
1506085509552,564
1506085509560,572
1506085509564,579
1506085509572,582
1506085509581,585
1506085509589,585
1506085509597,584
1506085509605,581
1506085509613,576
1506085509622,572
1506085509630,564
1506085509638,558
1506085509646,551
1506085509654,542
1506085509663,537
1506085509671,531
1506085509679,525
1506085509688,519
1506085509696,512
1506085509704,509
1506085509712,503
1506085509720,499
1506085509724,496
1506085509733,491
1506085509741,489
1506085509749,485
1506085509757,483
1506085509765,482
1506085509774,481
1506085509782,482
1506085509790,481
1506085509798,482
1506085509806,483
1506085509814,483
1506085509822,485
1506085509830,485
1506085509839,487
1506085509848,488
1506085509856,487
1506085509864,489
1506085509872,489
1506085509880,490
1506085509884,490
1506085509892,489
1506085509900,490
1506085509909,489
1506085509917,489
1506085509925,489
1506085509933,487
1506085509941,489
1506085509950,488
1506085509958,488
1506085509966,489
1506085509975,489
1506085509983,490
1506085509991,490
1506085509999,490
1506085510007,490
1506085510016,489
1506085510023,490
1506085510032,489
1506085510039,490
1506085510044,491
1506085510052,490
1506085510060,492
1506085510068,492
1506085510077,494
1506085510085,499
1506085510093,503
1506085510101,511
1506085510109,520
1506085510118,531
1506085510125,542
1506085510134,551
1506085510142,563
1506085510150,571
1506085510158,577
1506085510166,584
1506085510175,585
1506085510183,587
1506085510191,586
1506085510199,584
1506085510203,580
1506085510211,573
1506085510220,568
1506085510228,560
1506085510237,552
1506085510245,547
1506085510253,538
1506085510261,532
1506085510269,525
1506085510278,519
1506085510286,514
1506085510294,508
1506085510302,504
1506085510311,499
1506085510319,494
1506085510327,491
1506085510335,485
1506085510343,484
1506085510351,481
1506085510359,478
1506085510364,479
1506085510372,477
1506085510380,477
1506085510388,478
1506085510396,478
1506085510404,479
1506085510413,479
1506085510421,482
1506085510429,483
1506085510437,485
1506085510445,487
1506085510454,487
1506085510461,490
1506085510470,490
1506085510478,490
1506085510486,491
1506085510494,492
1506085510503,493
1506085510511,491
1506085510519,491
1506085510523,491
1506085510531,490
1506085510539,491
1506085510547,490
1506085510555,490
1506085510563,490
1506085510572,488
1506085510580,489
1506085510588,487
1506085510596,487
1506085510604,488
1506085510613,485
1506085510621,487
1506085510629,485
1506085510637,485
1506085510645,485
1506085510654,485
1506085510662,489
1506085510670,493
1506085510678,499
1506085510682,509
1506085510691,518
1506085510699,530
1506085510707,542
1506085510715,552
1506085510724,563
1506085510731,571
1506085510739,578
1506085510748,582
1506085510756,585
1506085510764,586
1506085510772,583
1506085510780,581
1506085510789,576
1506085510797,570
1506085510805,564
1506085510813,555
1506085510821,548
1506085510830,540
1506085510838,532
1506085510842,526
1506085510850,519
1506085510858,515
1506085510866,508
1506085510875,503
1506085510884,500
1506085510892,494
1506085510900,492
1506085510908,489
1506085510917,484
1506085510925,482
1506085510933,478
1506085510941,477
1506085510949,476
1506085510957,475
1506085510965,476
1506085510973,475
1506085510982,477
1506085510990,478
1506085510998,479
1506085511006,482
1506085511011,482
1506085511019,484
1506085511027,485
1506085511036,486
1506085511043,487
1506085511051,486
1506085511061,487
1506085511068,487
1506085511076,487
1506085511084,489
1506085511092,487
1506085511101,488
1506085511109,488
1506085511117,487
1506085511125,488
1506085511133,486
1506085511141,486
1506085511149,486
1506085511157,485
1506085511165,486
1506085511170,485
1506085511178,486
1506085511186,485
1506085511195,485
1506085511203,486
1506085511211,485
1506085511219,486
1506085511228,486
1506085511236,485
1506085511244,486
1506085511253,485
1506085511261,489
1506085511269,491
1506085511278,495
1506085511285,503
1506085511294,510
1506085511302,521
1506085511310,533
1506085511318,544
1506085511326,555
1506085511330,564
1506085511339,574
1506085511347,580
1506085511355,584
1506085511363,587
1506085511371,587
1506085511379,586
1506085511388,582
1506085511396,577
1506085511404,574
1506085511412,566
1506085511421,560
1506085511429,552
1506085511437,545
1506085511445,539
1506085511453,531
1506085511461,526
1506085511469,519
1506085511477,513
1506085511485,509
1506085511490,502
1506085511499,498
1506085511506,493
1506085511515,488
1506085511523,485
1506085511531,481
1506085511539,479
1506085511547,476
1506085511555,475
1506085511563,475
1506085511571,473
1506085511580,475
1506085511588,476
1506085511597,477
1506085511605,478
1506085511612,478
1506085511621,482
1506085511629,483
1506085511637,483
1506085511645,485
1506085511649,485
1506085511657,486
1506085511665,486
1506085511674,485
1506085511682,486
1506085511690,485
1506085511699,486
1506085511707,486
1506085511716,485
1506085511723,487
1506085511732,485
1506085511740,486
1506085511748,486
1506085511756,486
1506085511764,486
1506085511773,485
1506085511781,486
1506085511789,486
1506085511797,485
1506085511805,488
1506085511809,485
1506085511817,488
1506085511826,488
1506085511834,487
1506085511842,487
1506085511850,486
1506085511858,488
1506085511867,488
1506085511875,488
1506085511883,490
1506085511891,491
1506085511899,497
1506085511907,503
1506085511916,509
1506085511924,522
1506085511932,532
1506085511940,544
1506085511948,554
1506085511956,563
1506085511964,571
1506085511969,576
1506085511977,581
1506085511986,582
1506085511994,581
1506085512002,582
1506085512010,576
1506085512018,573
1506085512027,568
1506085512035,561
1506085512043,555
1506085512051,547
1506085512059,540
1506085512067,534
1506085512075,527
1506085512084,522
1506085512092,515
1506085512100,510
1506085512108,506
1506085512117,500
1506085512124,498
1506085512129,494
1506085512137,491
1506085512145,488
1506085512154,484
1506085512161,483
1506085512169,479
1506085512178,479
1506085512186,479
1506085512194,479
1506085512202,481
1506085512210,480
1506085512219,482
1506085512227,484
1506085512236,484
1506085512244,486
1506085512252,486
1506085512260,487
1506085512268,488
1506085512276,488
1506085512284,490
1506085512289,489
1506085512297,490
1506085512305,489
1506085512313,488
1506085512322,488
1506085512329,488
1506085512338,487
1506085512346,487
1506085512354,485
1506085512362,486
1506085512370,485
1506085512379,485
1506085512387,486
1506085512395,485
1506085512403,487
1506085512411,485
1506085512419,486
1506085512427,486
1506085512436,486
1506085512444,486
1506085512448,486
1506085512457,487
1506085512465,487
1506085512473,486
1506085512481,489
1506085512489,488
1506085512497,490
1506085512505,492
1506085512513,493
1506085512521,498
1506085512531,502
1506085512539,510
1506085512547,519
1506085512555,528
1506085512563,539
1506085512571,549
1506085512579,559
1506085512587,568
1506085512596,574
1506085512604,580
1506085512612,582
1506085512616,583
1506085512624,583
1506085512632,579
1506085512640,577
1506085512648,571
1506085512657,564
1506085512665,557
1506085512673,550
1506085512681,544
1506085512689,536
1506085512698,531
1506085512706,525
1506085512714,518
1506085512722,514
1506085512730,507
1506085512739,503
1506085512747,500
1506085512755,495
1506085512763,492
1506085512771,488
1506085512776,486
1506085512784,483
1506085512792,481
1506085512800,483
1506085512808,480
1506085512816,481
1506085512825,482
1506085512833,482
1506085512841,484
1506085512849,484
1506085512857,485
1506085512866,486
1506085512874,487
1506085512882,488
1506085512890,487
1506085512898,489
1506085512906,490
1506085512915,489
1506085512923,490
1506085512931,489
1506085512935,489
1506085512943,490
1506085512952,489
1506085512960,490
1506085512968,489
1506085512977,490
1506085512985,489
1506085512993,488
1506085513001,489
1506085513010,488
1506085513018,488
1506085513026,489
1506085513034,487
1506085513042,489
1506085513050,488
1506085513058,489
1506085513066,488
1506085513075,487
1506085513083,489
1506085513091,488
1506085513095,492
1506085513104,495
1506085513112,499
1506085513120,507
1506085513128,514
1506085513136,524
1506085513144,535
1506085513152,545
1506085513161,555
1506085513169,563
1506085513177,570
1506085513185,575
1506085513193,577
1506085513201,579
1506085513210,576
1506085513218,574
1506085513226,571
1506085513234,564
1506085513242,559
1506085513250,553
1506085513254,546
1506085513264,539
1506085513272,532
1506085513280,526
1506085513288,519
1506085513296,515
1506085513304,510
1506085513312,503
1506085513321,501
1506085513329,496
1506085513337,493
1506085513345,490
1506085513354,485
1506085513362,484
1506085513370,480
1506085513378,480
1506085513386,477
1506085513395,476
1506085513403,477
1506085513411,475
1506085513415,475
1506085513424,477
1506085513431,477
1506085513439,479
1506085513447,480
1506085513456,482
1506085513463,483
1506085513472,483
1506085513480,485
1506085513489,485
1506085513497,486
1506085513505,487
1506085513513,487
1506085513521,489
1506085513529,487
1506085513537,488
1506085513546,489
1506085513554,487
1506085513562,489
1506085513570,487
1506085513574,488
1506085513583,488
1506085513592,486
1506085513600,487
1506085513608,485
1506085513616,485
1506085513624,486
1506085513632,484
1506085513640,485
1506085513649,483
1506085513657,483
1506085513665,484
1506085513673,484
1506085513681,487
1506085513689,490
1506085513697,496
1506085513705,504
1506085513714,511
1506085513722,525
1506085513730,535
1506085513734,545
1506085513742,556
1506085513751,563
1506085513758,571
1506085513768,576
1506085513776,580
1506085513784,582
1506085513792,579
1506085513800,578
1506085513808,573
1506085513816,568
1506085513824,563
1506085513832,554
1506085513840,548
1506085513848,541
1506085513857,534
1506085513865,527
1506085513874,521
1506085513882,516
1506085513890,509
1506085513894,504
1506085513902,501
1506085513910,495
1506085513918,493
1506085513927,488
1506085513935,485
1506085513944,483
1506085513951,479
1506085513960,478
1506085513967,478
1506085513976,478
1506085513984,477
1506085513992,477
1506085514000,479
1506085514008,479
1506085514016,480
1506085514024,482
1506085514034,482
1506085514042,486
1506085514050,486
1506085514054,487
1506085514062,489
1506085514070,489
1506085514078,490
1506085514087,489
1506085514095,490
1506085514103,490
1506085514111,488
1506085514120,490
1506085514128,489
1506085514136,488
1506085514144,489
1506085514152,487
1506085514160,487
1506085514168,486
1506085514177,486
1506085514185,486
1506085514193,485
1506085514201,487
1506085514209,486
1506085514214,487
1506085514221,488
1506085514230,487
1506085514238,488
1506085514246,488
1506085514254,488
1506085514262,489
1506085514270,488
1506085514278,490
1506085514288,490
1506085514295,493
1506085514304,500
1506085514312,505
1506085514320,514
1506085514329,523
1506085514336,534
1506085514344,545
1506085514353,553
1506085514361,564
1506085514369,570
1506085514377,576
1506085514382,582
1506085514390,581
1506085514398,582
1506085514406,580
1506085514414,576
1506085514422,571
1506085514430,565
1506085514439,559
1506085514447,552
1506085514456,545
1506085514464,540
1506085514472,531
1506085514481,526
1506085514489,520
1506085514497,515
1506085514505,511
1506085514513,505
1506085514521,501
1506085514529,495
1506085514537,491
1506085514541,488
1506085514549,483
1506085514558,481
1506085514566,479
1506085514574,477
1506085514582,478
1506085514590,475
1506085514598,477
1506085514606,479
1506085514615,480
1506085514623,481
1506085514632,482
1506085514640,486
1506085514648,486
1506085514656,488
1506085514664,490
1506085514673,489
1506085514681,492
1506085514688,492
1506085514696,492
1506085514701,494
1506085514709,492
1506085514717,492
1506085514725,491
1506085514734,491
1506085514741,491
1506085514750,489
1506085514758,490
1506085514766,488
1506085514774,487
1506085514782,487
1506085514791,486
1506085514799,487
1506085514807,486
1506085514815,486
1506085514823,486
1506085514831,485
1506085514840,486
1506085514848,486
1506085514856,486
1506085514860,487
1506085514868,486
1506085514877,488
1506085514885,488
1506085514894,490
1506085514902,491
1506085514910,491
1506085514918,494
1506085514926,495
1506085514934,499
1506085514942,505
1506085514950,511
1506085514958,521
1506085514967,531
1506085514975,541
1506085514983,552
1506085514991,561
1506085514999,571
1506085515008,577
1506085515015,581
1506085515020,583
1506085515028,582
1506085515037,581
